2.048000e+003
9.950000e+002
9.950000e+002
9.950000e+002
9.950000e+002
9.950000e+002
9.950000e+002
9.950000e+002
9.950000e+002
1.000000e+003
9.970000e+002
9.950000e+002
9.940000e+002
9.920000e+002
9.930000e+002
9.920000e+002
9.890000e+002
9.880000e+002
9.870000e+002
9.900000e+002
9.930000e+002
9.890000e+002
9.880000e+002
9.860000e+002
9.880000e+002
9.930000e+002
9.970000e+002
9.930000e+002
9.860000e+002
9.830000e+002
9.770000e+002
9.790000e+002
9.750000e+002
9.740000e+002
9.720000e+002
9.690000e+002
9.690000e+002
9.690000e+002
9.710000e+002
9.730000e+002
9.710000e+002
9.690000e+002
9.660000e+002
9.660000e+002
9.660000e+002
9.660000e+002
9.670000e+002
9.650000e+002
9.630000e+002
9.670000e+002
9.690000e+002
9.690000e+002
9.680000e+002
9.670000e+002
9.630000e+002
9.660000e+002
9.640000e+002
9.680000e+002
9.660000e+002
9.640000e+002
9.610000e+002
9.600000e+002
9.570000e+002
9.520000e+002
9.470000e+002
9.470000e+002
9.430000e+002
9.330000e+002
9.270000e+002
9.270000e+002
9.390000e+002
9.580000e+002
9.800000e+002
1.010000e+003
1.048000e+003
1.099000e+003
1.148000e+003
1.180000e+003
1.192000e+003
1.177000e+003
1.128000e+003
1.058000e+003
9.910000e+002
9.510000e+002
9.370000e+002
9.390000e+002
9.500000e+002
9.580000e+002
9.590000e+002
9.570000e+002
9.550000e+002
9.580000e+002
9.590000e+002
9.610000e+002
9.620000e+002
9.600000e+002
9.570000e+002
9.560000e+002
9.590000e+002
9.550000e+002
9.570000e+002
9.580000e+002
9.570000e+002
9.580000e+002
9.590000e+002
9.580000e+002
9.580000e+002
9.550000e+002
9.530000e+002
9.570000e+002
9.590000e+002
9.630000e+002
9.600000e+002
9.600000e+002
9.580000e+002
9.560000e+002
9.570000e+002
9.560000e+002
9.550000e+002
9.530000e+002
9.530000e+002
9.560000e+002
9.580000e+002
9.580000e+002
9.580000e+002
9.560000e+002
9.540000e+002
9.590000e+002
9.590000e+002
9.580000e+002
9.580000e+002
9.570000e+002
9.570000e+002
9.560000e+002
9.580000e+002
9.560000e+002
9.540000e+002
9.530000e+002
9.540000e+002
9.550000e+002
9.580000e+002
9.600000e+002
9.570000e+002
9.580000e+002
9.550000e+002
9.580000e+002
9.570000e+002
9.570000e+002
9.550000e+002
9.550000e+002
9.530000e+002
9.560000e+002
9.560000e+002
9.570000e+002
9.580000e+002
9.540000e+002
9.540000e+002
9.550000e+002
9.570000e+002
9.570000e+002
9.570000e+002
9.540000e+002
9.530000e+002
9.530000e+002
9.550000e+002
9.550000e+002
9.570000e+002
9.540000e+002
9.520000e+002
9.520000e+002
9.520000e+002
9.510000e+002
9.520000e+002
9.500000e+002
9.470000e+002
9.500000e+002
9.520000e+002
9.530000e+002
9.520000e+002
9.490000e+002
9.490000e+002
9.510000e+002
9.510000e+002
9.520000e+002
9.520000e+002
9.510000e+002
9.500000e+002
9.530000e+002
9.580000e+002
9.590000e+002
9.590000e+002
9.570000e+002
9.560000e+002
9.610000e+002
9.640000e+002
9.640000e+002
9.660000e+002
9.650000e+002
9.660000e+002
9.670000e+002
9.690000e+002
9.730000e+002
9.740000e+002
9.740000e+002
9.710000e+002
9.730000e+002
9.750000e+002
9.780000e+002
9.750000e+002
9.750000e+002
9.730000e+002
9.730000e+002
9.760000e+002
9.740000e+002
9.730000e+002
9.750000e+002
9.730000e+002
9.740000e+002
9.740000e+002
9.710000e+002
9.720000e+002
9.720000e+002
9.710000e+002
9.700000e+002
9.710000e+002
9.720000e+002
9.690000e+002
9.680000e+002
9.660000e+002
9.690000e+002
9.700000e+002
9.720000e+002
9.680000e+002
9.680000e+002
9.670000e+002
9.690000e+002
9.690000e+002
9.710000e+002
9.700000e+002
9.670000e+002
9.660000e+002
9.680000e+002
9.690000e+002
9.670000e+002
9.680000e+002
9.640000e+002
9.640000e+002
9.630000e+002
9.650000e+002
9.640000e+002
9.620000e+002
9.620000e+002
9.630000e+002
9.650000e+002
9.670000e+002
9.670000e+002
9.660000e+002
9.650000e+002
9.620000e+002
9.660000e+002
9.650000e+002
9.640000e+002
9.630000e+002
9.620000e+002
9.590000e+002
9.620000e+002
9.640000e+002
9.660000e+002
9.620000e+002
9.590000e+002
9.580000e+002
9.610000e+002
9.640000e+002
9.630000e+002
9.620000e+002
9.600000e+002
9.580000e+002
9.590000e+002
9.610000e+002
9.620000e+002
9.630000e+002
9.630000e+002
9.620000e+002
9.640000e+002
9.630000e+002
9.660000e+002
9.640000e+002
9.640000e+002
9.630000e+002
9.630000e+002
9.660000e+002
9.680000e+002
9.650000e+002
9.630000e+002
9.610000e+002
9.630000e+002
9.650000e+002
9.660000e+002
9.680000e+002
9.700000e+002
9.690000e+002
9.690000e+002
9.700000e+002
9.740000e+002
9.740000e+002
9.730000e+002
9.790000e+002
9.800000e+002
9.830000e+002
9.840000e+002
9.830000e+002
9.810000e+002
9.780000e+002
9.800000e+002
9.790000e+002
9.790000e+002
9.790000e+002
9.780000e+002
9.770000e+002
9.760000e+002
9.770000e+002
9.800000e+002
9.820000e+002
9.830000e+002
9.750000e+002
9.670000e+002
9.670000e+002
9.640000e+002
9.620000e+002
9.580000e+002
9.580000e+002
9.590000e+002
9.610000e+002
9.600000e+002
9.610000e+002
9.590000e+002
9.560000e+002
9.550000e+002
9.560000e+002
9.560000e+002
9.540000e+002
9.550000e+002
9.530000e+002
9.580000e+002
9.570000e+002
9.580000e+002
9.600000e+002
9.550000e+002
9.530000e+002
9.560000e+002
9.580000e+002
9.590000e+002
9.580000e+002
9.540000e+002
9.510000e+002
9.520000e+002
9.480000e+002
9.390000e+002
9.350000e+002
9.290000e+002
9.220000e+002
9.170000e+002
9.230000e+002
9.410000e+002
9.640000e+002
9.920000e+002
1.021000e+003
1.071000e+003
1.122000e+003
1.168000e+003
1.199000e+003
1.212000e+003
1.205000e+003
1.175000e+003
1.122000e+003
1.057000e+003
1.002000e+003
9.700000e+002
9.460000e+002
9.340000e+002
9.290000e+002
9.330000e+002
9.390000e+002
9.460000e+002
9.460000e+002
9.470000e+002
9.460000e+002
9.480000e+002
9.480000e+002
9.480000e+002
9.450000e+002
9.470000e+002
9.470000e+002
9.470000e+002
9.490000e+002
9.450000e+002
9.420000e+002
9.420000e+002
9.440000e+002
9.450000e+002
9.460000e+002
9.430000e+002
9.450000e+002
9.470000e+002
9.490000e+002
9.460000e+002
9.460000e+002
9.430000e+002
9.420000e+002
9.420000e+002
9.460000e+002
9.460000e+002
9.450000e+002
9.430000e+002
9.410000e+002
9.440000e+002
9.420000e+002
9.430000e+002
9.420000e+002
9.410000e+002
9.420000e+002
9.440000e+002
9.440000e+002
9.450000e+002
9.460000e+002
9.430000e+002
9.420000e+002
9.460000e+002
9.460000e+002
9.470000e+002
9.470000e+002
9.420000e+002
9.430000e+002
9.450000e+002
9.460000e+002
9.490000e+002
9.460000e+002
9.450000e+002
9.420000e+002
9.440000e+002
9.460000e+002
9.460000e+002
9.470000e+002
9.430000e+002
9.410000e+002
9.410000e+002
9.440000e+002
9.450000e+002
9.430000e+002
9.410000e+002
9.400000e+002
9.400000e+002
9.420000e+002
9.410000e+002
9.390000e+002
9.400000e+002
9.370000e+002
9.380000e+002
9.380000e+002
9.400000e+002
9.380000e+002
9.340000e+002
9.330000e+002
9.340000e+002
9.370000e+002
9.350000e+002
9.340000e+002
9.330000e+002
9.300000e+002
9.320000e+002
9.330000e+002
9.340000e+002
9.330000e+002
9.300000e+002
9.290000e+002
9.320000e+002
9.340000e+002
9.350000e+002
9.360000e+002
9.370000e+002
9.360000e+002
9.420000e+002
9.450000e+002
9.500000e+002
9.510000e+002
9.520000e+002
9.510000e+002
9.560000e+002
9.590000e+002
9.610000e+002
9.600000e+002
9.580000e+002
9.580000e+002
9.600000e+002
9.620000e+002
9.640000e+002
9.640000e+002
9.600000e+002
9.600000e+002
9.610000e+002
9.630000e+002
9.630000e+002
9.650000e+002
9.600000e+002
9.580000e+002
9.630000e+002
9.620000e+002
9.640000e+002
9.640000e+002
9.600000e+002
9.590000e+002
9.620000e+002
9.630000e+002
9.610000e+002
9.630000e+002
9.610000e+002
9.610000e+002
9.620000e+002
9.650000e+002
9.660000e+002
9.630000e+002
9.620000e+002
9.600000e+002
9.610000e+002
9.640000e+002
9.610000e+002
9.610000e+002
9.610000e+002
9.580000e+002
9.610000e+002
9.600000e+002
9.610000e+002
9.590000e+002
9.570000e+002
9.560000e+002
9.570000e+002
9.570000e+002
9.580000e+002
9.590000e+002
9.550000e+002
9.540000e+002
9.550000e+002
9.570000e+002
9.580000e+002
9.580000e+002
9.550000e+002
9.550000e+002
9.550000e+002
9.600000e+002
9.580000e+002
9.570000e+002
9.560000e+002
9.530000e+002
9.570000e+002
9.580000e+002
9.580000e+002
9.570000e+002
9.530000e+002
9.520000e+002
9.530000e+002
9.540000e+002
9.560000e+002
9.550000e+002
9.550000e+002
9.550000e+002
9.550000e+002
9.580000e+002
9.580000e+002
9.570000e+002
9.550000e+002
9.540000e+002
9.540000e+002
9.560000e+002
9.580000e+002
9.550000e+002
9.550000e+002
9.530000e+002
9.540000e+002
9.560000e+002
9.580000e+002
9.560000e+002
9.560000e+002
9.560000e+002
9.580000e+002
9.570000e+002
9.580000e+002
9.570000e+002
9.550000e+002
9.550000e+002
9.560000e+002
9.580000e+002
9.610000e+002
9.650000e+002
9.640000e+002
9.650000e+002
9.670000e+002
9.690000e+002
9.710000e+002
9.710000e+002
9.710000e+002
9.730000e+002
9.740000e+002
9.760000e+002
9.790000e+002
9.810000e+002
9.760000e+002
9.750000e+002
9.760000e+002
9.750000e+002
9.770000e+002
9.750000e+002
9.740000e+002
9.690000e+002
9.690000e+002
9.710000e+002
9.740000e+002
9.790000e+002
9.800000e+002
9.780000e+002
9.710000e+002
9.700000e+002
9.680000e+002
9.670000e+002
9.630000e+002
9.600000e+002
9.560000e+002
9.580000e+002
9.570000e+002
9.570000e+002
9.530000e+002
9.500000e+002
9.520000e+002
9.550000e+002
9.540000e+002
9.530000e+002
9.510000e+002
9.490000e+002
9.480000e+002
9.500000e+002
9.510000e+002
9.510000e+002
9.480000e+002
9.470000e+002
9.480000e+002
9.490000e+002
9.530000e+002
9.500000e+002
9.460000e+002
9.430000e+002
9.420000e+002
9.370000e+002
9.310000e+002
9.260000e+002
9.200000e+002
9.130000e+002
9.100000e+002
9.190000e+002
9.430000e+002
9.740000e+002
1.006000e+003
1.048000e+003
1.106000e+003
1.162000e+003
1.201000e+003
1.216000e+003
1.194000e+003
1.128000e+003
1.034000e+003
9.600000e+002
9.240000e+002
9.230000e+002
9.350000e+002
9.410000e+002
9.450000e+002
9.460000e+002
9.450000e+002
9.460000e+002
9.450000e+002
9.430000e+002
9.450000e+002
9.430000e+002
9.460000e+002
9.450000e+002
9.450000e+002
9.420000e+002
9.430000e+002
9.440000e+002
9.440000e+002
9.410000e+002
9.430000e+002
9.400000e+002
9.410000e+002
9.430000e+002
9.430000e+002
9.400000e+002
9.400000e+002
9.370000e+002
9.400000e+002
9.420000e+002
9.420000e+002
9.430000e+002
9.390000e+002
9.380000e+002
9.400000e+002
9.410000e+002
9.420000e+002
9.420000e+002
9.390000e+002
9.400000e+002
9.440000e+002
9.450000e+002
9.440000e+002
9.440000e+002
9.450000e+002
9.410000e+002
9.430000e+002
9.460000e+002
9.440000e+002
9.440000e+002
9.410000e+002
9.390000e+002
9.390000e+002
9.410000e+002
9.410000e+002
9.420000e+002
9.390000e+002
9.390000e+002
9.400000e+002
9.410000e+002
9.440000e+002
9.440000e+002
9.420000e+002
9.390000e+002
9.420000e+002
9.430000e+002
9.450000e+002
9.440000e+002
9.440000e+002
9.430000e+002
9.470000e+002
9.440000e+002
9.460000e+002
9.460000e+002
9.440000e+002
9.410000e+002
9.430000e+002
9.430000e+002
9.420000e+002
9.410000e+002
9.400000e+002
9.400000e+002
9.390000e+002
9.410000e+002
9.410000e+002
9.420000e+002
9.370000e+002
9.380000e+002
9.370000e+002
9.400000e+002
9.400000e+002
9.400000e+002
9.400000e+002
9.390000e+002
9.390000e+002
9.410000e+002
9.450000e+002
9.450000e+002
9.460000e+002
9.490000e+002
9.520000e+002
9.560000e+002
9.570000e+002
9.580000e+002
9.570000e+002
9.570000e+002
9.590000e+002
9.600000e+002
9.630000e+002
9.630000e+002
9.610000e+002
9.620000e+002
9.630000e+002
9.640000e+002
9.640000e+002
9.640000e+002
9.620000e+002
9.620000e+002
9.620000e+002
9.610000e+002
9.640000e+002
9.630000e+002
9.610000e+002
9.600000e+002
9.590000e+002
9.620000e+002
9.630000e+002
9.630000e+002
9.600000e+002
9.590000e+002
9.630000e+002
9.620000e+002
9.650000e+002
9.620000e+002
9.590000e+002
9.580000e+002
9.600000e+002
9.600000e+002
9.600000e+002
9.590000e+002
9.540000e+002
9.540000e+002
9.560000e+002
9.570000e+002
9.580000e+002
9.570000e+002
9.560000e+002
9.520000e+002
9.540000e+002
9.540000e+002
9.530000e+002
9.520000e+002
9.530000e+002
9.510000e+002
9.530000e+002
9.540000e+002
9.560000e+002
9.530000e+002
9.540000e+002
9.510000e+002
9.510000e+002
9.540000e+002
9.530000e+002
9.540000e+002
9.500000e+002
9.480000e+002
9.500000e+002
9.520000e+002
9.510000e+002
9.520000e+002
9.510000e+002
9.480000e+002
9.500000e+002
9.510000e+002
9.540000e+002
9.540000e+002
9.540000e+002
9.500000e+002
9.510000e+002
9.550000e+002
9.550000e+002
9.560000e+002
9.530000e+002
9.510000e+002
9.520000e+002
9.530000e+002
9.530000e+002
9.530000e+002
9.490000e+002
9.470000e+002
9.530000e+002
9.520000e+002
9.530000e+002
9.520000e+002
9.520000e+002
9.500000e+002
9.520000e+002
9.550000e+002
9.530000e+002
9.550000e+002
9.550000e+002
9.550000e+002
9.560000e+002
9.620000e+002
9.630000e+002
9.630000e+002
9.620000e+002
9.630000e+002
9.660000e+002
9.670000e+002
9.690000e+002
9.680000e+002
9.680000e+002
9.690000e+002
9.710000e+002
9.730000e+002
9.750000e+002
9.720000e+002
9.710000e+002
9.690000e+002
9.680000e+002
9.710000e+002
9.700000e+002
9.690000e+002
9.680000e+002
9.690000e+002
9.680000e+002
9.690000e+002
9.710000e+002
9.730000e+002
9.760000e+002
9.720000e+002
9.680000e+002
9.620000e+002
9.620000e+002
9.550000e+002
9.520000e+002
9.480000e+002
9.470000e+002
9.480000e+002
9.500000e+002
9.490000e+002
9.470000e+002
9.460000e+002
9.450000e+002
9.470000e+002
9.470000e+002
9.470000e+002
9.450000e+002
9.430000e+002
9.440000e+002
9.490000e+002
9.490000e+002
9.460000e+002
9.450000e+002
9.410000e+002
9.430000e+002
9.440000e+002
9.460000e+002
9.430000e+002
9.390000e+002
9.320000e+002
9.290000e+002
9.230000e+002
9.220000e+002
9.190000e+002
9.160000e+002
9.040000e+002
8.950000e+002
8.980000e+002
9.090000e+002
9.250000e+002
9.470000e+002
9.700000e+002
1.001000e+003
1.042000e+003
1.098000e+003
1.151000e+003
1.186000e+003
1.196000e+003
1.178000e+003
1.119000e+003
1.037000e+003
9.630000e+002
9.240000e+002
9.200000e+002
9.290000e+002
9.420000e+002
9.460000e+002
9.460000e+002
9.440000e+002
9.420000e+002
9.430000e+002
9.470000e+002
9.460000e+002
9.450000e+002
9.430000e+002
9.420000e+002
9.430000e+002
9.440000e+002
9.460000e+002
9.450000e+002
9.420000e+002
9.410000e+002
9.420000e+002
9.450000e+002
9.430000e+002
9.420000e+002
9.430000e+002
9.430000e+002
9.420000e+002
9.460000e+002
9.470000e+002
9.460000e+002
9.450000e+002
9.440000e+002
9.440000e+002
9.440000e+002
9.450000e+002
9.450000e+002
9.430000e+002
9.430000e+002
9.440000e+002
9.450000e+002
9.470000e+002
9.490000e+002
9.470000e+002
9.450000e+002
9.460000e+002
9.470000e+002
9.490000e+002
9.470000e+002
9.450000e+002
9.450000e+002
9.470000e+002
9.490000e+002
9.490000e+002
9.470000e+002
9.450000e+002
9.460000e+002
9.460000e+002
9.510000e+002
9.490000e+002
9.470000e+002
9.450000e+002
9.480000e+002
9.470000e+002
9.490000e+002
9.480000e+002
9.460000e+002
9.480000e+002
9.490000e+002
9.490000e+002
9.490000e+002
9.490000e+002
9.480000e+002
9.460000e+002
9.460000e+002
9.510000e+002
9.500000e+002
9.490000e+002
9.470000e+002
9.460000e+002
9.460000e+002
9.490000e+002
9.510000e+002
9.470000e+002
9.480000e+002
9.460000e+002
9.490000e+002
9.490000e+002
9.510000e+002
9.500000e+002
9.470000e+002
9.450000e+002
9.470000e+002
9.470000e+002
9.500000e+002
9.510000e+002
9.500000e+002
9.490000e+002
9.540000e+002
9.570000e+002
9.600000e+002
9.610000e+002
9.600000e+002
9.590000e+002
9.610000e+002
9.650000e+002
9.670000e+002
9.640000e+002
9.650000e+002
9.670000e+002
9.670000e+002
9.680000e+002
9.700000e+002
9.680000e+002
9.660000e+002
9.650000e+002
9.650000e+002
9.660000e+002
9.680000e+002
9.660000e+002
9.650000e+002
9.620000e+002
9.650000e+002
9.670000e+002
9.680000e+002
9.690000e+002
9.650000e+002
9.630000e+002
9.640000e+002
9.650000e+002
9.650000e+002
9.670000e+002
9.640000e+002
9.630000e+002
9.640000e+002
9.650000e+002
9.640000e+002
9.630000e+002
9.610000e+002
9.620000e+002
9.610000e+002
9.650000e+002
9.640000e+002
9.620000e+002
9.580000e+002
9.560000e+002
9.580000e+002
9.600000e+002
9.600000e+002
9.610000e+002
9.590000e+002
9.570000e+002
9.580000e+002
9.610000e+002
9.600000e+002
9.600000e+002
9.580000e+002
9.550000e+002
9.560000e+002
9.570000e+002
9.580000e+002
9.570000e+002
9.550000e+002
9.540000e+002
9.550000e+002
9.560000e+002
9.570000e+002
9.570000e+002
9.580000e+002
9.570000e+002
9.560000e+002
9.570000e+002
9.600000e+002
9.560000e+002
9.560000e+002
9.540000e+002
9.510000e+002
9.520000e+002
9.550000e+002
9.550000e+002
9.540000e+002
9.540000e+002
9.540000e+002
9.560000e+002
9.560000e+002
9.550000e+002
9.550000e+002
9.480000e+002
9.520000e+002
9.520000e+002
9.550000e+002
9.550000e+002
9.540000e+002
9.530000e+002
9.550000e+002
9.580000e+002
9.580000e+002
9.570000e+002
9.570000e+002
9.560000e+002
9.580000e+002
9.600000e+002
9.660000e+002
9.660000e+002
9.640000e+002
9.630000e+002
9.670000e+002
9.680000e+002
9.690000e+002
9.680000e+002
9.690000e+002
9.700000e+002
9.710000e+002
9.740000e+002
9.780000e+002
9.750000e+002
9.760000e+002
9.730000e+002
9.730000e+002
9.750000e+002
9.770000e+002
9.730000e+002
9.710000e+002
9.720000e+002
9.730000e+002
9.700000e+002
9.710000e+002
9.680000e+002
9.730000e+002
9.740000e+002
9.750000e+002
9.710000e+002
9.680000e+002
9.640000e+002
9.610000e+002
9.590000e+002
9.570000e+002
9.550000e+002
9.580000e+002
9.570000e+002
9.550000e+002
9.520000e+002
9.540000e+002
9.560000e+002
9.570000e+002
9.550000e+002
9.520000e+002
9.510000e+002
9.490000e+002
9.500000e+002
9.510000e+002
9.510000e+002
9.480000e+002
9.490000e+002
9.490000e+002
9.510000e+002
9.500000e+002
9.520000e+002
9.500000e+002
9.480000e+002
9.510000e+002
9.520000e+002
9.540000e+002
9.530000e+002
9.500000e+002
9.470000e+002
9.450000e+002
9.380000e+002
9.350000e+002
9.270000e+002
9.210000e+002
9.110000e+002
9.130000e+002
9.290000e+002
9.530000e+002
9.800000e+002
1.013000e+003
1.061000e+003
1.119000e+003
1.165000e+003
1.188000e+003
1.180000e+003
1.131000e+003
1.053000e+003
9.840000e+002
9.400000e+002
9.240000e+002
9.280000e+002
9.340000e+002
9.420000e+002
9.440000e+002
9.460000e+002
9.460000e+002
9.440000e+002
9.430000e+002
9.390000e+002
9.390000e+002
9.430000e+002
9.450000e+002
9.430000e+002
9.430000e+002
9.410000e+002
9.430000e+002
9.470000e+002
9.460000e+002
9.450000e+002
9.450000e+002
9.450000e+002
9.450000e+002
9.470000e+002
9.460000e+002
9.460000e+002
9.440000e+002
9.390000e+002
9.420000e+002
9.440000e+002
9.450000e+002
9.440000e+002
9.430000e+002
9.390000e+002
9.410000e+002
9.430000e+002
9.430000e+002
9.430000e+002
9.420000e+002
9.410000e+002
9.430000e+002
9.400000e+002
9.430000e+002
9.420000e+002
9.420000e+002
9.400000e+002
9.410000e+002
9.430000e+002
9.450000e+002
9.450000e+002
9.450000e+002
9.440000e+002
9.450000e+002
9.450000e+002
9.430000e+002
9.430000e+002
9.400000e+002
9.370000e+002
9.410000e+002
9.430000e+002
9.450000e+002
9.460000e+002
9.410000e+002
9.430000e+002
9.430000e+002
9.440000e+002
9.450000e+002
9.450000e+002
9.430000e+002
9.400000e+002
9.410000e+002
9.440000e+002
9.450000e+002
9.440000e+002
9.430000e+002
9.390000e+002
9.390000e+002
9.390000e+002
9.400000e+002
9.390000e+002
9.340000e+002
9.350000e+002
9.340000e+002
9.370000e+002
9.350000e+002
9.300000e+002
9.330000e+002
9.320000e+002
9.360000e+002
9.370000e+002
9.390000e+002
9.380000e+002
9.350000e+002
9.340000e+002
9.350000e+002
9.380000e+002
9.400000e+002
9.420000e+002
9.390000e+002
9.400000e+002
9.430000e+002
9.480000e+002
9.500000e+002
9.510000e+002
9.510000e+002
9.510000e+002
9.550000e+002
9.580000e+002
9.610000e+002
9.630000e+002
9.630000e+002
9.600000e+002
9.620000e+002
9.620000e+002
9.630000e+002
9.620000e+002
9.610000e+002
9.600000e+002
9.610000e+002
9.630000e+002
9.630000e+002
9.650000e+002
9.620000e+002
9.600000e+002
9.620000e+002
9.610000e+002
9.650000e+002
9.640000e+002
9.630000e+002
9.640000e+002
9.670000e+002
9.680000e+002
9.660000e+002
9.650000e+002
9.630000e+002
9.590000e+002
9.630000e+002
9.640000e+002
9.640000e+002
9.610000e+002
9.590000e+002
9.570000e+002
9.590000e+002
9.610000e+002
9.600000e+002
9.570000e+002
9.580000e+002
9.560000e+002
9.590000e+002
9.590000e+002
9.600000e+002
9.610000e+002
9.570000e+002
9.570000e+002
9.550000e+002
9.570000e+002
9.590000e+002
9.580000e+002
9.610000e+002
9.570000e+002
9.580000e+002
9.580000e+002
9.580000e+002
9.580000e+002
9.570000e+002
9.560000e+002
9.580000e+002
9.600000e+002
9.610000e+002
9.590000e+002
9.570000e+002
9.530000e+002
9.550000e+002
9.560000e+002
9.570000e+002
9.600000e+002
9.590000e+002
9.540000e+002
9.580000e+002
9.610000e+002
9.610000e+002
9.580000e+002
9.580000e+002
9.570000e+002
9.570000e+002
9.580000e+002
9.580000e+002
9.580000e+002
9.560000e+002
9.560000e+002
9.560000e+002
9.590000e+002
9.590000e+002
9.590000e+002
9.550000e+002
9.540000e+002
9.560000e+002
9.580000e+002
9.600000e+002
9.620000e+002
9.630000e+002
9.630000e+002
9.690000e+002
9.700000e+002
9.730000e+002
9.720000e+002
9.710000e+002
9.720000e+002
9.740000e+002
9.770000e+002
9.770000e+002
9.800000e+002
9.770000e+002
9.770000e+002
9.800000e+002
9.780000e+002
9.790000e+002
9.770000e+002
9.750000e+002
9.730000e+002
9.760000e+002
9.780000e+002
9.780000e+002
9.740000e+002
9.730000e+002
9.740000e+002
9.780000e+002
9.830000e+002
9.850000e+002
9.820000e+002
9.780000e+002
9.700000e+002
9.700000e+002
9.670000e+002
9.670000e+002
9.620000e+002
9.580000e+002
9.560000e+002
9.560000e+002
9.550000e+002
9.540000e+002
9.540000e+002
9.560000e+002
9.530000e+002
9.550000e+002
9.560000e+002
9.560000e+002
9.550000e+002
9.530000e+002
9.500000e+002
9.530000e+002
9.500000e+002
9.550000e+002
9.560000e+002
9.520000e+002
9.480000e+002
9.520000e+002
9.550000e+002
9.540000e+002
9.540000e+002
9.530000e+002
9.480000e+002
9.460000e+002
9.450000e+002
9.390000e+002
9.330000e+002
9.290000e+002
9.220000e+002
9.150000e+002
9.160000e+002
9.250000e+002
9.430000e+002
9.650000e+002
9.920000e+002
1.032000e+003
1.087000e+003
1.143000e+003
1.184000e+003
1.201000e+003
1.183000e+003
1.128000e+003
1.050000e+003
9.810000e+002
9.390000e+002
9.240000e+002
9.260000e+002
9.340000e+002
9.440000e+002
9.460000e+002
9.450000e+002
9.450000e+002
9.440000e+002
9.460000e+002
9.480000e+002
9.470000e+002
9.470000e+002
9.440000e+002
9.420000e+002
9.420000e+002
9.460000e+002
9.460000e+002
9.430000e+002
9.430000e+002
9.410000e+002
9.420000e+002
9.450000e+002
9.450000e+002
9.440000e+002
9.410000e+002
9.410000e+002
9.410000e+002
9.440000e+002
9.460000e+002
9.460000e+002
9.420000e+002
9.410000e+002
9.430000e+002
9.450000e+002
9.450000e+002
9.450000e+002
9.430000e+002
9.420000e+002
9.420000e+002
9.440000e+002
9.460000e+002
9.450000e+002
9.420000e+002
9.390000e+002
9.410000e+002
9.430000e+002
9.420000e+002
9.430000e+002
9.410000e+002
9.390000e+002
9.390000e+002
9.420000e+002
9.450000e+002
9.460000e+002
9.440000e+002
9.420000e+002
9.420000e+002
9.440000e+002
9.460000e+002
9.420000e+002
9.400000e+002
9.400000e+002
9.410000e+002
9.410000e+002
9.430000e+002
9.400000e+002
9.410000e+002
9.390000e+002
9.420000e+002
9.440000e+002
9.430000e+002
9.440000e+002
9.440000e+002
9.420000e+002
9.440000e+002
9.450000e+002
9.450000e+002
9.430000e+002
9.420000e+002
9.390000e+002
9.390000e+002
9.420000e+002
9.420000e+002
9.400000e+002
9.380000e+002
9.350000e+002
9.360000e+002
9.370000e+002
9.380000e+002
9.380000e+002
9.340000e+002
9.350000e+002
9.350000e+002
9.370000e+002
9.370000e+002
9.350000e+002
9.360000e+002
9.340000e+002
9.380000e+002
9.380000e+002
9.410000e+002
9.440000e+002
9.440000e+002
9.470000e+002
9.510000e+002
9.570000e+002
9.580000e+002
9.590000e+002
9.580000e+002
9.580000e+002
9.620000e+002
9.650000e+002
9.670000e+002
9.660000e+002
9.660000e+002
9.620000e+002
9.650000e+002
9.670000e+002
9.680000e+002
9.640000e+002
9.660000e+002
9.650000e+002
9.660000e+002
9.680000e+002
9.690000e+002
9.690000e+002
9.660000e+002
9.660000e+002
9.670000e+002
9.700000e+002
9.700000e+002
9.700000e+002
9.690000e+002
9.660000e+002
9.670000e+002
9.690000e+002
9.690000e+002
9.660000e+002
9.650000e+002
9.630000e+002
9.650000e+002
9.650000e+002
9.670000e+002
9.660000e+002
9.640000e+002
9.630000e+002
9.620000e+002
9.650000e+002
9.640000e+002
9.630000e+002
9.620000e+002
9.590000e+002
9.590000e+002
9.610000e+002
9.620000e+002
9.610000e+002
9.610000e+002
9.590000e+002
9.600000e+002
9.620000e+002
9.600000e+002
9.610000e+002
9.580000e+002
9.580000e+002
9.600000e+002
9.620000e+002
9.620000e+002
9.620000e+002
9.580000e+002
9.570000e+002
9.580000e+002
9.600000e+002
9.590000e+002
9.590000e+002
9.580000e+002
9.570000e+002
9.580000e+002
9.590000e+002
9.590000e+002
9.600000e+002
9.590000e+002
9.580000e+002
9.590000e+002
9.610000e+002
9.630000e+002
9.590000e+002
9.610000e+002
9.570000e+002
9.580000e+002
9.620000e+002
9.600000e+002
9.580000e+002
9.580000e+002
9.570000e+002
9.580000e+002
9.580000e+002
9.600000e+002
9.600000e+002
9.580000e+002
9.580000e+002
9.590000e+002
9.610000e+002
9.610000e+002
9.610000e+002
9.580000e+002
9.580000e+002
9.600000e+002
9.610000e+002
9.630000e+002
9.630000e+002
9.650000e+002
9.610000e+002
9.640000e+002
9.690000e+002
9.730000e+002
9.730000e+002
9.720000e+002
9.710000e+002
9.730000e+002
9.770000e+002
9.780000e+002
9.790000e+002
9.800000e+002
9.800000e+002
9.810000e+002
9.840000e+002
9.830000e+002
9.830000e+002
9.790000e+002
9.770000e+002
9.760000e+002
9.780000e+002
9.810000e+002
9.760000e+002
9.760000e+002
9.740000e+002
9.770000e+002
9.820000e+002
9.840000e+002
9.800000e+002
9.730000e+002
9.690000e+002
9.670000e+002
9.640000e+002
9.630000e+002
9.600000e+002
9.580000e+002
9.590000e+002
9.600000e+002
9.580000e+002
9.580000e+002
9.570000e+002
9.560000e+002
9.550000e+002
9.560000e+002
9.570000e+002
9.600000e+002
9.590000e+002
9.570000e+002
9.550000e+002
9.550000e+002
9.550000e+002
9.570000e+002
9.560000e+002
9.550000e+002
9.530000e+002
9.560000e+002
9.560000e+002
9.560000e+002
9.560000e+002
9.550000e+002
9.530000e+002
9.510000e+002
9.500000e+002
9.430000e+002
9.350000e+002
9.280000e+002
9.250000e+002
9.200000e+002
9.170000e+002
9.230000e+002
9.410000e+002
9.680000e+002
9.970000e+002
1.037000e+003
1.084000e+003
1.140000e+003
1.186000e+003
1.213000e+003
1.208000e+003
1.179000e+003
1.113000e+003
1.028000e+003
9.650000e+002
9.350000e+002
9.300000e+002
9.390000e+002
9.480000e+002
9.520000e+002
9.520000e+002
9.500000e+002
9.480000e+002
9.480000e+002
9.490000e+002
9.500000e+002
9.510000e+002
9.500000e+002
9.470000e+002
9.470000e+002
9.490000e+002
9.500000e+002
9.500000e+002
9.470000e+002
9.450000e+002
9.470000e+002
9.470000e+002
9.460000e+002
9.470000e+002
9.450000e+002
9.420000e+002
9.440000e+002
9.450000e+002
9.480000e+002
9.450000e+002
9.450000e+002
9.440000e+002
9.440000e+002
9.450000e+002
9.460000e+002
9.460000e+002
9.450000e+002
9.430000e+002
9.460000e+002
9.470000e+002
9.490000e+002
9.490000e+002
9.480000e+002
9.460000e+002
9.470000e+002
9.500000e+002
9.500000e+002
9.500000e+002
9.490000e+002
9.470000e+002
9.500000e+002
9.460000e+002
9.490000e+002
9.500000e+002
9.480000e+002
9.460000e+002
9.460000e+002
9.470000e+002
9.490000e+002
9.490000e+002
9.470000e+002
9.450000e+002
9.460000e+002
9.470000e+002
9.490000e+002
9.480000e+002
9.470000e+002
9.460000e+002
9.480000e+002
9.480000e+002
9.500000e+002
9.500000e+002
9.510000e+002
9.460000e+002
9.510000e+002
9.510000e+002
9.520000e+002
9.490000e+002
9.480000e+002
9.440000e+002
9.460000e+002
9.490000e+002
9.490000e+002
9.500000e+002
9.470000e+002
9.460000e+002
9.460000e+002
9.460000e+002
9.460000e+002
9.490000e+002
9.470000e+002
9.450000e+002
9.480000e+002
9.500000e+002
9.490000e+002
9.490000e+002
9.460000e+002
9.430000e+002
9.490000e+002
9.500000e+002
9.520000e+002
9.490000e+002
9.470000e+002
9.480000e+002
9.500000e+002
9.520000e+002
9.550000e+002
9.550000e+002
9.580000e+002
9.580000e+002
9.610000e+002
9.620000e+002
9.650000e+002
9.670000e+002
9.670000e+002
9.650000e+002
9.680000e+002
9.700000e+002
9.680000e+002
9.680000e+002
9.680000e+002
9.660000e+002
9.660000e+002
9.680000e+002
9.690000e+002
9.680000e+002
9.670000e+002
9.660000e+002
9.660000e+002
9.680000e+002
9.680000e+002
9.670000e+002
9.660000e+002
9.640000e+002
9.650000e+002
9.670000e+002
9.680000e+002
9.670000e+002
9.670000e+002
9.650000e+002
9.670000e+002
9.680000e+002
9.690000e+002
9.680000e+002
9.660000e+002
9.620000e+002
9.630000e+002
9.670000e+002
9.700000e+002
9.700000e+002
9.690000e+002
9.670000e+002
9.670000e+002
9.700000e+002
9.710000e+002
9.710000e+002
9.710000e+002
9.680000e+002
9.710000e+002
9.750000e+002
9.770000e+002
9.770000e+002
9.740000e+002
9.740000e+002
9.750000e+002
9.810000e+002
9.800000e+002
9.750000e+002
9.730000e+002
9.780000e+002
9.830000e+002
9.820000e+002
9.800000e+002
9.780000e+002
9.760000e+002
9.760000e+002
9.750000e+002
9.740000e+002
9.700000e+002
9.670000e+002
9.610000e+002
9.600000e+002
9.600000e+002
9.620000e+002
9.580000e+002
9.560000e+002
9.550000e+002
9.520000e+002
9.510000e+002
9.520000e+002
9.540000e+002
9.530000e+002
9.490000e+002
9.470000e+002
9.490000e+002
9.500000e+002
9.510000e+002
9.510000e+002
9.500000e+002
9.480000e+002
9.520000e+002
9.540000e+002
9.530000e+002
9.530000e+002
9.540000e+002
9.510000e+002
9.540000e+002
9.540000e+002
9.560000e+002
9.530000e+002
9.540000e+002
9.490000e+002
9.510000e+002
9.490000e+002
9.440000e+002
9.380000e+002
9.290000e+002
9.200000e+002
9.200000e+002
9.140000e+002
9.100000e+002
9.160000e+002
9.350000e+002
9.630000e+002
9.960000e+002
1.029000e+003
1.076000e+003
1.126000e+003
1.171000e+003
1.193000e+003
1.199000e+003
1.171000e+003
1.104000e+003
1.019000e+003
9.570000e+002
9.280000e+002
9.300000e+002
9.410000e+002
9.490000e+002
9.510000e+002
9.470000e+002
9.440000e+002
9.480000e+002
9.460000e+002
9.490000e+002
9.470000e+002
9.450000e+002
9.430000e+002
9.460000e+002
9.480000e+002
9.470000e+002
9.470000e+002
9.450000e+002
9.440000e+002
9.430000e+002
9.440000e+002
9.460000e+002
9.460000e+002
9.450000e+002
9.440000e+002
9.460000e+002
9.470000e+002
9.460000e+002
9.470000e+002
9.420000e+002
9.400000e+002
9.430000e+002
9.420000e+002
9.460000e+002
9.460000e+002
9.460000e+002
9.440000e+002
9.440000e+002
9.460000e+002
9.490000e+002
9.480000e+002
9.450000e+002
9.440000e+002
9.460000e+002
9.440000e+002
9.460000e+002
9.450000e+002
9.420000e+002
9.410000e+002
9.430000e+002
9.470000e+002
9.470000e+002
9.480000e+002
9.440000e+002
9.440000e+002
9.450000e+002
9.460000e+002
9.480000e+002
9.490000e+002
9.450000e+002
9.450000e+002
9.470000e+002
9.480000e+002
9.490000e+002
9.470000e+002
9.460000e+002
9.440000e+002
9.440000e+002
9.470000e+002
9.480000e+002
9.450000e+002
9.460000e+002
9.440000e+002
9.450000e+002
9.470000e+002
9.480000e+002
9.470000e+002
9.450000e+002
9.430000e+002
9.440000e+002
9.460000e+002
9.480000e+002
9.480000e+002
9.470000e+002
9.430000e+002
9.450000e+002
9.440000e+002
9.460000e+002
9.440000e+002
9.430000e+002
9.390000e+002
9.400000e+002
9.430000e+002
9.440000e+002
9.430000e+002
9.430000e+002
9.410000e+002
9.440000e+002
9.460000e+002
9.480000e+002
9.470000e+002
9.450000e+002
9.430000e+002
9.460000e+002
9.500000e+002
9.500000e+002
9.500000e+002
9.470000e+002
9.500000e+002
9.530000e+002
9.550000e+002
9.560000e+002
9.570000e+002
9.560000e+002
9.530000e+002
9.570000e+002
9.590000e+002
9.620000e+002
9.630000e+002
9.630000e+002
9.600000e+002
9.610000e+002
9.620000e+002
9.630000e+002
9.630000e+002
9.580000e+002
9.590000e+002
9.550000e+002
9.590000e+002
9.610000e+002
9.610000e+002
9.630000e+002
9.620000e+002
9.620000e+002
9.640000e+002
9.630000e+002
9.630000e+002
9.610000e+002
9.600000e+002
9.590000e+002
9.610000e+002
9.630000e+002
9.610000e+002
9.590000e+002
9.590000e+002
9.580000e+002
9.610000e+002
9.610000e+002
9.620000e+002
9.580000e+002
9.560000e+002
9.570000e+002
9.580000e+002
9.550000e+002
9.530000e+002
9.510000e+002
9.500000e+002
9.550000e+002
9.560000e+002
9.560000e+002
9.550000e+002
9.520000e+002
9.510000e+002
9.520000e+002
9.520000e+002
9.550000e+002
9.530000e+002
9.510000e+002
9.540000e+002
9.520000e+002
9.540000e+002
9.560000e+002
9.550000e+002
9.530000e+002
9.500000e+002
9.540000e+002
9.540000e+002
9.540000e+002
9.550000e+002
9.540000e+002
9.530000e+002
9.520000e+002
9.550000e+002
9.530000e+002
9.540000e+002
9.520000e+002
9.500000e+002
9.530000e+002
9.530000e+002
9.540000e+002
9.530000e+002
9.520000e+002
9.460000e+002
9.470000e+002
9.520000e+002
9.520000e+002
9.500000e+002
9.500000e+002
9.460000e+002
9.490000e+002
9.500000e+002
9.540000e+002
9.560000e+002
9.550000e+002
9.520000e+002
9.520000e+002
9.540000e+002
9.540000e+002
9.570000e+002
9.520000e+002
9.510000e+002
9.510000e+002
9.520000e+002
9.520000e+002
9.510000e+002
9.490000e+002
9.470000e+002
9.470000e+002
9.510000e+002
9.500000e+002
9.490000e+002
9.500000e+002
9.490000e+002
9.510000e+002
9.530000e+002
9.530000e+002
9.520000e+002
9.510000e+002
9.500000e+002
9.520000e+002
9.540000e+002
9.560000e+002
9.550000e+002
9.560000e+002
9.540000e+002
9.550000e+002
9.540000e+002
9.520000e+002
9.540000e+002
9.520000e+002
9.500000e+002
9.520000e+002
9.520000e+002
9.530000e+002
9.520000e+002
9.490000e+002
9.490000e+002
9.500000e+002
9.540000e+002
9.530000e+002
9.520000e+002
9.510000e+002
9.490000e+002
9.500000e+002
9.510000e+002
9.520000e+002
9.530000e+002
9.520000e+002
9.520000e+002
9.540000e+002
9.560000e+002
9.550000e+002
9.550000e+002
9.530000e+002
9.520000e+002
9.520000e+002
9.510000e+002
9.550000e+002
9.530000e+002
9.540000e+002
9.520000e+002
9.530000e+002
9.520000e+002
9.550000e+002
9.570000e+002
9.580000e+002
9.580000e+002
9.620000e+002
9.630000e+002
9.640000e+002
9.630000e+002
9.650000e+002
9.630000e+002
9.670000e+002
9.690000e+002
9.710000e+002
9.730000e+002
9.730000e+002
9.720000e+002
9.710000e+002
9.730000e+002
9.730000e+002
9.720000e+002
9.680000e+002
9.660000e+002
9.680000e+002
9.700000e+002
9.730000e+002
9.690000e+002
9.660000e+002
9.600000e+002
9.640000e+002
9.650000e+002
9.700000e+002
9.710000e+002
9.700000e+002
9.670000e+002
9.640000e+002
9.620000e+002
9.610000e+002
9.600000e+002
9.540000e+002
9.500000e+002
9.510000e+002
9.510000e+002
9.510000e+002
9.500000e+002
9.500000e+002
9.500000e+002
9.480000e+002
9.520000e+002
9.490000e+002
9.490000e+002
9.440000e+002
9.400000e+002
9.430000e+002
9.440000e+002
9.470000e+002
9.480000e+002
9.440000e+002
9.410000e+002
9.430000e+002
9.450000e+002
9.450000e+002
9.450000e+002
9.420000e+002
9.380000e+002
9.360000e+002
9.330000e+002
9.260000e+002
9.270000e+002
9.200000e+002
9.100000e+002
9.090000e+002
9.190000e+002
9.400000e+002
9.630000e+002
9.860000e+002
1.020000e+003
1.068000e+003
1.121000e+003
1.167000e+003
1.193000e+003
1.201000e+003
1.182000e+003
1.136000e+003
1.069000e+003
1.010000e+003
9.670000e+002
9.390000e+002
9.240000e+002
9.140000e+002
9.170000e+002
9.240000e+002
9.310000e+002
9.340000e+002
9.340000e+002
9.370000e+002
9.400000e+002
9.420000e+002
9.420000e+002
9.410000e+002
9.400000e+002
9.390000e+002
9.400000e+002
9.380000e+002
9.380000e+002
9.360000e+002
9.340000e+002
9.340000e+002
9.380000e+002
9.380000e+002
9.380000e+002
9.350000e+002
9.350000e+002
9.360000e+002
9.390000e+002
9.380000e+002
9.380000e+002
9.390000e+002
9.350000e+002
9.350000e+002
9.380000e+002
9.370000e+002
9.370000e+002
9.350000e+002
9.350000e+002
9.370000e+002
9.380000e+002
9.390000e+002
9.380000e+002
9.380000e+002
9.360000e+002
9.400000e+002
9.380000e+002
9.390000e+002
9.380000e+002
9.360000e+002
9.360000e+002
9.380000e+002
9.380000e+002
9.410000e+002
9.390000e+002
9.380000e+002
9.330000e+002
9.350000e+002
9.350000e+002
9.380000e+002
9.380000e+002
9.360000e+002
9.360000e+002
9.370000e+002
9.380000e+002
9.410000e+002
9.410000e+002
9.390000e+002
9.390000e+002
9.400000e+002
9.430000e+002
9.430000e+002
9.410000e+002
9.410000e+002
9.390000e+002
9.380000e+002
9.430000e+002
9.430000e+002
9.430000e+002
9.430000e+002
9.380000e+002
9.410000e+002
9.420000e+002
9.410000e+002
9.380000e+002
9.350000e+002
9.310000e+002
9.320000e+002
9.340000e+002
9.330000e+002
9.320000e+002
9.310000e+002
9.270000e+002
9.250000e+002
9.290000e+002
9.260000e+002
9.240000e+002
9.250000e+002
9.210000e+002
9.240000e+002
9.270000e+002
9.260000e+002
9.270000e+002
9.240000e+002
9.240000e+002
9.260000e+002
9.280000e+002
9.320000e+002
9.320000e+002
9.300000e+002
9.310000e+002
9.360000e+002
9.380000e+002
9.390000e+002
9.420000e+002
9.420000e+002
9.440000e+002
9.460000e+002
9.480000e+002
9.530000e+002
9.540000e+002
9.530000e+002
9.540000e+002
9.560000e+002
9.580000e+002
9.590000e+002
9.630000e+002
9.600000e+002
9.610000e+002
9.630000e+002
9.640000e+002
9.630000e+002
9.630000e+002
9.620000e+002
9.580000e+002
9.620000e+002
9.610000e+002
9.610000e+002
9.600000e+002
9.590000e+002
9.590000e+002
9.590000e+002
9.620000e+002
9.620000e+002
9.610000e+002
9.590000e+002
9.580000e+002
9.590000e+002
9.590000e+002
9.610000e+002
9.600000e+002
9.580000e+002
9.570000e+002
9.580000e+002
9.610000e+002
9.600000e+002
9.600000e+002
9.570000e+002
9.570000e+002
9.590000e+002
9.590000e+002
9.600000e+002
9.600000e+002
9.590000e+002
9.540000e+002
9.550000e+002
9.550000e+002
9.570000e+002
9.550000e+002
9.530000e+002
9.530000e+002
9.530000e+002
9.550000e+002
9.570000e+002
9.570000e+002
9.550000e+002
9.530000e+002
9.560000e+002
9.570000e+002
9.580000e+002
9.570000e+002
9.550000e+002
9.540000e+002
9.540000e+002
9.560000e+002
9.570000e+002
9.580000e+002
9.520000e+002
9.530000e+002
9.550000e+002
9.570000e+002
9.550000e+002
9.540000e+002
9.520000e+002
9.480000e+002
9.500000e+002
9.550000e+002
9.550000e+002
9.540000e+002
9.530000e+002
9.510000e+002
9.520000e+002
9.550000e+002
9.550000e+002
9.540000e+002
9.520000e+002
9.520000e+002
9.540000e+002
9.530000e+002
9.560000e+002
9.550000e+002
9.530000e+002
9.530000e+002
9.530000e+002
9.560000e+002
9.560000e+002
9.550000e+002
9.510000e+002
9.500000e+002
9.540000e+002
9.580000e+002
9.600000e+002
9.610000e+002
9.650000e+002
9.630000e+002
9.650000e+002
9.640000e+002
9.670000e+002
9.690000e+002
9.720000e+002
9.690000e+002
9.710000e+002
9.720000e+002
9.740000e+002
9.750000e+002
9.730000e+002
9.710000e+002
9.720000e+002
9.720000e+002
9.740000e+002
9.720000e+002
9.680000e+002
9.680000e+002
9.690000e+002
9.670000e+002
9.680000e+002
9.730000e+002
9.750000e+002
9.750000e+002
9.720000e+002
9.670000e+002
9.660000e+002
9.640000e+002
9.600000e+002
9.570000e+002
9.530000e+002
9.540000e+002
9.530000e+002
9.530000e+002
9.490000e+002
9.470000e+002
9.480000e+002
9.520000e+002
9.540000e+002
9.520000e+002
9.510000e+002
9.500000e+002
9.500000e+002
9.510000e+002
9.520000e+002
9.510000e+002
9.500000e+002
9.470000e+002
9.470000e+002
9.510000e+002
9.520000e+002
9.480000e+002
9.470000e+002
9.450000e+002
9.450000e+002
9.470000e+002
9.480000e+002
9.450000e+002
9.390000e+002
9.310000e+002
9.240000e+002
9.210000e+002
9.180000e+002
9.120000e+002
9.070000e+002
9.180000e+002
9.420000e+002
9.730000e+002
1.003000e+003
1.045000e+003
1.095000e+003
1.144000e+003
1.186000e+003
1.202000e+003
1.190000e+003
1.140000e+003
1.061000e+003
9.830000e+002
9.340000e+002
9.190000e+002
9.250000e+002
9.310000e+002
9.370000e+002
9.410000e+002
9.410000e+002
9.410000e+002
9.440000e+002
9.450000e+002
9.430000e+002
9.390000e+002
9.370000e+002
9.410000e+002
9.410000e+002
9.410000e+002
9.410000e+002
9.380000e+002
9.400000e+002
9.420000e+002
9.430000e+002
9.400000e+002
9.420000e+002
9.400000e+002
9.440000e+002
9.450000e+002
9.470000e+002
9.440000e+002
9.440000e+002
9.440000e+002
9.440000e+002
9.450000e+002
9.440000e+002
9.440000e+002
9.440000e+002
9.420000e+002
9.450000e+002
9.420000e+002
9.440000e+002
9.450000e+002
9.430000e+002
9.420000e+002
9.410000e+002
9.430000e+002
9.440000e+002
9.450000e+002
9.430000e+002
9.410000e+002
9.430000e+002
9.410000e+002
9.420000e+002
9.430000e+002
9.430000e+002
9.420000e+002
9.430000e+002
9.440000e+002
9.450000e+002
9.430000e+002
9.430000e+002
9.440000e+002
9.450000e+002
9.460000e+002
9.450000e+002
9.460000e+002
9.450000e+002
9.400000e+002
9.410000e+002
9.430000e+002
9.440000e+002
9.440000e+002
9.410000e+002
9.400000e+002
9.420000e+002
9.450000e+002
9.440000e+002
9.430000e+002
9.410000e+002
9.370000e+002
9.410000e+002
9.410000e+002
9.440000e+002
9.430000e+002
9.400000e+002
9.380000e+002
9.390000e+002
9.420000e+002
9.420000e+002
9.430000e+002
9.410000e+002
9.390000e+002
9.390000e+002
9.400000e+002
9.420000e+002
9.420000e+002
9.400000e+002
9.380000e+002
9.390000e+002
9.400000e+002
9.430000e+002
9.410000e+002
9.420000e+002
9.420000e+002
9.470000e+002
9.500000e+002
9.520000e+002
9.540000e+002
9.540000e+002
9.540000e+002
9.570000e+002
9.600000e+002
9.630000e+002
9.610000e+002
9.610000e+002
9.600000e+002
9.630000e+002
9.630000e+002
9.650000e+002
9.660000e+002
9.650000e+002
9.650000e+002
9.670000e+002
9.670000e+002
9.700000e+002
9.680000e+002
9.680000e+002
9.650000e+002
9.680000e+002
9.670000e+002
9.690000e+002
9.670000e+002
9.650000e+002
9.630000e+002
9.650000e+002
9.670000e+002
9.670000e+002
9.660000e+002
9.640000e+002
9.620000e+002
9.650000e+002
9.640000e+002
9.660000e+002
9.670000e+002
9.630000e+002
9.620000e+002
9.640000e+002
9.650000e+002
9.630000e+002
9.640000e+002
9.630000e+002
9.600000e+002
9.600000e+002
9.620000e+002
9.640000e+002
9.620000e+002
9.600000e+002
9.560000e+002
9.580000e+002
9.620000e+002
9.610000e+002
9.590000e+002
9.590000e+002
9.550000e+002
9.580000e+002
9.600000e+002
9.600000e+002
9.570000e+002
9.570000e+002
9.530000e+002
9.560000e+002
9.600000e+002
9.610000e+002
9.580000e+002
9.560000e+002
9.560000e+002
9.540000e+002
9.580000e+002
9.580000e+002
9.560000e+002
9.540000e+002
9.530000e+002
9.550000e+002
9.570000e+002
9.570000e+002
9.560000e+002
9.560000e+002
9.550000e+002
9.570000e+002
9.570000e+002
9.590000e+002
9.590000e+002
9.570000e+002
9.560000e+002
9.560000e+002
9.600000e+002
9.610000e+002
9.600000e+002
9.570000e+002
9.570000e+002
9.600000e+002
9.590000e+002
9.610000e+002
9.600000e+002
9.600000e+002
9.550000e+002
9.570000e+002
9.600000e+002
9.620000e+002
9.600000e+002
9.600000e+002
9.560000e+002
9.580000e+002
9.600000e+002
9.620000e+002
9.620000e+002
9.620000e+002
9.650000e+002
9.680000e+002
9.730000e+002
9.740000e+002
9.740000e+002
9.730000e+002
9.720000e+002
9.760000e+002
9.800000e+002
9.780000e+002
9.780000e+002
9.810000e+002
9.800000e+002
9.790000e+002
9.780000e+002
9.780000e+002
9.770000e+002
9.750000e+002
9.730000e+002
9.760000e+002
9.770000e+002
9.750000e+002
9.770000e+002
9.780000e+002
9.800000e+002
9.850000e+002
9.800000e+002
9.750000e+002
9.720000e+002
9.700000e+002
9.660000e+002
9.640000e+002
9.630000e+002
9.630000e+002
9.600000e+002
9.580000e+002
9.540000e+002
9.540000e+002
9.570000e+002
9.570000e+002
9.570000e+002
9.560000e+002
9.540000e+002
9.540000e+002
9.550000e+002
9.570000e+002
9.550000e+002
9.530000e+002
9.500000e+002
9.540000e+002
9.550000e+002
9.570000e+002
9.570000e+002
9.570000e+002
9.530000e+002
9.530000e+002
9.550000e+002
9.530000e+002
9.450000e+002
9.340000e+002
9.280000e+002
9.230000e+002
9.190000e+002
9.150000e+002
9.240000e+002
9.450000e+002
9.730000e+002
1.010000e+003
1.053000e+003
1.109000e+003
1.161000e+003
1.199000e+003
1.209000e+003
1.183000e+003
1.118000e+003
1.028000e+003
9.590000e+002
9.300000e+002
9.270000e+002
9.420000e+002
9.510000e+002
9.530000e+002
9.510000e+002
9.480000e+002
9.470000e+002
9.480000e+002
9.500000e+002
9.500000e+002
9.490000e+002
9.470000e+002
9.450000e+002
9.470000e+002
9.480000e+002
9.470000e+002
9.490000e+002
9.460000e+002
9.430000e+002
9.430000e+002
9.460000e+002
9.470000e+002
9.470000e+002
9.460000e+002
9.420000e+002
9.440000e+002
9.460000e+002
9.470000e+002
9.470000e+002
9.450000e+002
9.460000e+002
9.450000e+002
9.480000e+002
9.490000e+002
9.480000e+002
9.470000e+002
9.440000e+002
9.470000e+002
9.480000e+002
9.490000e+002
9.480000e+002
9.450000e+002
9.450000e+002
9.470000e+002
9.490000e+002
9.500000e+002
9.510000e+002
9.470000e+002
9.450000e+002
9.470000e+002
9.470000e+002
9.500000e+002
9.490000e+002
9.500000e+002
9.490000e+002
9.490000e+002
9.500000e+002
9.530000e+002
9.510000e+002
9.480000e+002
9.490000e+002
9.500000e+002
9.480000e+002
9.510000e+002
9.500000e+002
9.490000e+002
9.460000e+002
9.480000e+002
9.490000e+002
9.480000e+002
9.500000e+002
9.490000e+002
9.480000e+002
9.470000e+002
9.470000e+002
9.500000e+002
9.490000e+002
9.490000e+002
9.480000e+002
9.480000e+002
9.480000e+002
9.480000e+002
9.490000e+002
9.460000e+002
9.450000e+002
9.470000e+002
9.470000e+002
9.490000e+002
9.490000e+002
9.470000e+002
9.470000e+002
9.460000e+002
9.500000e+002
9.510000e+002
9.510000e+002
9.490000e+002
9.470000e+002
9.540000e+002
9.550000e+002
9.590000e+002
9.590000e+002
9.580000e+002
9.590000e+002
9.590000e+002
9.610000e+002
9.610000e+002
9.610000e+002
9.640000e+002
9.640000e+002
9.670000e+002
9.700000e+002
9.710000e+002
9.720000e+002
9.690000e+002
9.670000e+002
9.710000e+002
9.730000e+002
9.740000e+002
9.700000e+002
9.680000e+002
9.670000e+002
9.670000e+002
9.680000e+002
9.700000e+002
9.700000e+002
9.700000e+002
9.670000e+002
9.680000e+002
9.690000e+002
9.700000e+002
9.710000e+002
9.690000e+002
9.660000e+002
9.670000e+002
9.670000e+002
9.690000e+002
9.700000e+002
9.680000e+002
9.650000e+002
9.680000e+002
9.700000e+002
9.700000e+002
9.690000e+002
9.670000e+002
9.640000e+002
9.650000e+002
9.660000e+002
9.650000e+002
9.640000e+002
9.660000e+002
9.630000e+002
9.650000e+002
9.660000e+002
9.650000e+002
9.660000e+002
9.620000e+002
9.600000e+002
9.610000e+002
9.610000e+002
9.640000e+002
9.630000e+002
9.610000e+002
9.580000e+002
9.600000e+002
9.630000e+002
9.610000e+002
9.630000e+002
9.610000e+002
9.590000e+002
9.620000e+002
9.650000e+002
9.640000e+002
9.630000e+002
9.620000e+002
9.590000e+002
9.610000e+002
9.610000e+002
9.630000e+002
9.630000e+002
9.590000e+002
9.600000e+002
9.600000e+002
9.620000e+002
9.630000e+002
9.600000e+002
9.600000e+002
9.600000e+002
9.620000e+002
9.630000e+002
9.660000e+002
9.670000e+002
9.660000e+002
9.630000e+002
9.620000e+002
9.640000e+002
9.640000e+002
9.620000e+002
9.610000e+002
9.610000e+002
9.620000e+002
9.650000e+002
9.640000e+002
9.650000e+002
9.610000e+002
9.620000e+002
9.660000e+002
9.710000e+002
9.760000e+002
9.730000e+002
9.760000e+002
9.740000e+002
9.790000e+002
9.790000e+002
9.810000e+002
9.820000e+002
9.840000e+002
9.850000e+002
9.850000e+002
9.880000e+002
9.890000e+002
9.880000e+002
9.830000e+002
9.810000e+002
9.820000e+002
9.820000e+002
9.820000e+002
9.820000e+002
9.810000e+002
9.790000e+002
9.820000e+002
9.880000e+002
9.900000e+002
9.870000e+002
9.760000e+002
9.730000e+002
9.730000e+002
9.700000e+002
9.690000e+002
9.670000e+002
9.640000e+002
9.640000e+002
9.610000e+002
9.630000e+002
9.640000e+002
9.650000e+002
9.640000e+002
9.610000e+002
9.620000e+002
9.620000e+002
9.640000e+002
9.640000e+002
9.630000e+002
9.610000e+002
9.590000e+002
9.600000e+002
9.600000e+002
9.600000e+002
9.590000e+002
9.560000e+002
9.570000e+002
9.590000e+002
9.610000e+002
9.600000e+002
9.550000e+002
9.500000e+002
9.450000e+002
9.390000e+002
9.350000e+002
9.310000e+002
9.220000e+002
9.180000e+002
9.270000e+002
9.500000e+002
9.770000e+002
1.006000e+003
1.045000e+003
1.099000e+003
1.155000e+003
1.188000e+003
1.197000e+003
1.171000e+003
1.114000e+003
1.036000e+003
9.700000e+002
9.380000e+002
9.320000e+002
9.410000e+002
9.470000e+002
9.510000e+002
9.530000e+002
9.530000e+002
9.550000e+002
9.540000e+002
9.540000e+002
9.520000e+002
9.550000e+002
9.560000e+002
9.560000e+002
9.570000e+002
9.570000e+002
9.530000e+002
9.550000e+002
9.560000e+002
9.570000e+002
9.560000e+002
9.540000e+002
9.510000e+002
9.520000e+002
9.510000e+002
9.540000e+002
9.550000e+002
9.510000e+002
9.520000e+002
9.540000e+002
9.530000e+002
9.540000e+002
9.530000e+002
9.540000e+002
9.520000e+002
9.570000e+002
9.570000e+002
9.580000e+002
9.560000e+002
9.540000e+002
9.540000e+002
9.550000e+002
9.570000e+002
9.550000e+002
9.530000e+002
9.530000e+002
9.500000e+002
9.530000e+002
9.540000e+002
9.550000e+002
9.510000e+002
9.510000e+002
9.500000e+002
9.510000e+002
9.530000e+002
9.550000e+002
9.550000e+002
9.550000e+002
9.560000e+002
9.570000e+002
9.590000e+002
9.570000e+002
9.550000e+002
9.540000e+002
9.540000e+002
9.530000e+002
9.530000e+002
9.520000e+002
9.540000e+002
9.520000e+002
9.510000e+002
9.550000e+002
9.550000e+002
9.580000e+002
9.540000e+002
9.550000e+002
9.530000e+002
9.540000e+002
9.560000e+002
9.570000e+002
9.540000e+002
9.510000e+002
9.480000e+002
9.470000e+002
9.530000e+002
9.520000e+002
9.530000e+002
9.500000e+002
9.470000e+002
9.500000e+002
9.500000e+002
9.540000e+002
9.550000e+002
9.510000e+002
9.510000e+002
9.520000e+002
9.550000e+002
9.580000e+002
9.580000e+002
9.580000e+002
9.570000e+002
9.610000e+002
9.620000e+002
9.670000e+002
9.660000e+002
9.660000e+002
9.640000e+002
9.680000e+002
9.690000e+002
9.720000e+002
9.720000e+002
9.700000e+002
9.710000e+002
9.730000e+002
9.740000e+002
9.750000e+002
9.750000e+002
9.730000e+002
9.710000e+002
9.720000e+002
9.730000e+002
9.760000e+002
9.740000e+002
9.730000e+002
9.690000e+002
9.690000e+002
9.710000e+002
9.700000e+002
9.690000e+002
9.680000e+002
9.660000e+002
9.680000e+002
9.690000e+002
9.700000e+002
9.700000e+002
9.680000e+002
9.660000e+002
9.680000e+002
9.670000e+002
9.690000e+002
9.660000e+002
9.680000e+002
9.660000e+002
9.680000e+002
9.670000e+002
9.690000e+002
9.680000e+002
9.650000e+002
9.630000e+002
9.640000e+002
9.640000e+002
9.630000e+002
9.610000e+002
9.600000e+002
9.620000e+002
9.620000e+002
9.640000e+002
9.620000e+002
9.620000e+002
9.600000e+002
9.590000e+002
9.620000e+002
9.600000e+002
9.620000e+002
9.620000e+002
9.610000e+002
9.590000e+002
9.610000e+002
9.630000e+002
9.610000e+002
9.620000e+002
9.600000e+002
9.590000e+002
9.590000e+002
9.600000e+002
9.630000e+002
9.630000e+002
9.640000e+002
9.610000e+002
9.640000e+002
9.620000e+002
9.610000e+002
9.630000e+002
9.620000e+002
9.600000e+002
9.620000e+002
9.640000e+002
9.650000e+002
9.640000e+002
9.610000e+002
9.590000e+002
9.590000e+002
9.630000e+002
9.620000e+002
9.660000e+002
9.610000e+002
9.590000e+002
9.600000e+002
9.660000e+002
9.680000e+002
9.720000e+002
9.720000e+002
9.710000e+002
9.720000e+002
9.740000e+002
9.780000e+002
9.800000e+002
9.800000e+002
9.770000e+002
9.800000e+002
9.830000e+002
9.830000e+002
9.820000e+002
9.820000e+002
9.780000e+002
9.760000e+002
9.780000e+002
9.790000e+002
9.770000e+002
9.740000e+002
9.710000e+002
9.720000e+002
9.750000e+002
9.810000e+002
9.810000e+002
9.750000e+002
9.680000e+002
9.690000e+002
9.690000e+002
9.650000e+002
9.620000e+002
9.590000e+002
9.560000e+002
9.560000e+002
9.590000e+002
9.610000e+002
9.620000e+002
9.610000e+002
9.580000e+002
9.580000e+002
9.590000e+002
9.590000e+002
9.570000e+002
9.550000e+002
9.540000e+002
9.540000e+002
9.540000e+002
9.550000e+002
9.540000e+002
9.510000e+002
9.520000e+002
9.540000e+002
9.530000e+002
9.550000e+002
9.550000e+002
9.540000e+002
9.510000e+002
9.480000e+002
9.430000e+002
9.390000e+002
9.360000e+002
9.300000e+002
9.200000e+002
9.160000e+002
9.260000e+002
9.460000e+002
9.720000e+002
1.001000e+003
1.041000e+003
1.096000e+003
1.147000e+003
1.180000e+003
1.191000e+003
1.168000e+003
1.106000e+003
1.030000e+003
9.730000e+002
9.410000e+002
9.300000e+002
9.310000e+002
9.370000e+002
9.450000e+002
9.490000e+002
9.500000e+002
9.490000e+002
9.490000e+002
9.460000e+002
9.440000e+002
9.480000e+002
9.470000e+002
9.470000e+002
9.470000e+002
9.470000e+002
9.500000e+002
9.500000e+002
9.520000e+002
9.480000e+002
9.480000e+002
9.470000e+002
9.500000e+002
9.500000e+002
9.510000e+002
9.490000e+002
9.470000e+002
9.460000e+002
9.460000e+002
9.470000e+002
9.470000e+002
9.450000e+002
9.460000e+002
9.440000e+002
9.430000e+002
9.460000e+002
9.450000e+002
9.460000e+002
9.430000e+002
9.430000e+002
9.440000e+002
9.490000e+002
9.480000e+002
9.460000e+002
9.450000e+002
9.450000e+002
9.460000e+002
9.460000e+002
9.470000e+002
9.430000e+002
9.440000e+002
9.430000e+002
9.450000e+002
9.460000e+002
9.450000e+002
9.460000e+002
9.440000e+002
9.430000e+002
9.430000e+002
9.460000e+002
9.460000e+002
9.450000e+002
9.440000e+002
9.440000e+002
9.450000e+002
9.480000e+002
9.500000e+002
9.480000e+002
9.470000e+002
9.450000e+002
9.460000e+002
9.480000e+002
9.480000e+002
9.470000e+002
9.460000e+002
9.460000e+002
9.440000e+002
9.440000e+002
9.430000e+002
9.410000e+002
9.400000e+002
9.380000e+002
9.380000e+002
9.390000e+002
9.400000e+002
9.380000e+002
9.350000e+002
9.310000e+002
9.330000e+002
9.360000e+002
9.390000e+002
9.370000e+002
9.340000e+002
9.360000e+002
9.350000e+002
9.390000e+002
9.390000e+002
9.390000e+002
9.380000e+002
9.380000e+002
9.410000e+002
9.410000e+002
9.470000e+002
9.490000e+002
9.470000e+002
9.500000e+002
9.520000e+002
9.540000e+002
9.570000e+002
9.570000e+002
9.590000e+002
9.600000e+002
9.590000e+002
9.630000e+002
9.650000e+002
9.640000e+002
9.660000e+002
9.650000e+002
9.660000e+002
9.660000e+002
9.670000e+002
9.670000e+002
9.670000e+002
9.660000e+002
9.660000e+002
9.670000e+002
9.700000e+002
9.700000e+002
9.680000e+002
9.660000e+002
9.670000e+002
9.690000e+002
9.690000e+002
9.690000e+002
9.660000e+002
9.630000e+002
9.630000e+002
9.640000e+002
9.680000e+002
9.660000e+002
9.630000e+002
9.610000e+002
9.620000e+002
9.650000e+002
9.660000e+002
9.640000e+002
9.630000e+002
9.630000e+002
9.620000e+002
9.640000e+002
9.650000e+002
9.630000e+002
9.630000e+002
9.610000e+002
9.620000e+002
9.620000e+002
9.650000e+002
9.640000e+002
9.630000e+002
9.620000e+002
9.630000e+002
9.630000e+002
9.650000e+002
9.640000e+002
9.610000e+002
9.590000e+002
9.600000e+002
9.600000e+002
9.610000e+002
9.620000e+002
9.590000e+002
9.570000e+002
9.580000e+002
9.600000e+002
9.600000e+002
9.620000e+002
9.580000e+002
9.580000e+002
9.590000e+002
9.620000e+002
9.630000e+002
9.630000e+002
9.600000e+002
9.580000e+002
9.590000e+002
9.640000e+002
9.620000e+002
9.630000e+002
9.610000e+002
9.580000e+002
9.580000e+002
9.580000e+002
9.600000e+002
9.590000e+002
9.590000e+002
9.570000e+002
9.590000e+002
9.610000e+002
9.620000e+002
9.610000e+002
9.600000e+002
9.590000e+002
9.610000e+002
9.620000e+002
9.630000e+002
9.620000e+002
9.610000e+002
9.600000e+002
9.610000e+002
9.620000e+002
9.650000e+002
9.650000e+002
9.630000e+002
9.620000e+002
9.640000e+002
9.680000e+002
9.690000e+002
9.710000e+002
9.690000e+002
9.690000e+002
9.720000e+002
9.760000e+002
9.760000e+002
9.770000e+002
9.760000e+002
9.770000e+002
9.790000e+002
9.810000e+002
9.830000e+002
9.830000e+002
9.820000e+002
9.810000e+002
9.800000e+002
9.800000e+002
9.810000e+002
9.800000e+002
9.800000e+002
9.780000e+002
9.780000e+002
9.760000e+002
9.820000e+002
9.800000e+002
9.780000e+002
9.730000e+002
9.770000e+002
9.820000e+002
9.860000e+002
9.830000e+002
9.790000e+002
9.720000e+002
9.690000e+002
9.680000e+002
9.670000e+002
9.630000e+002
9.600000e+002
9.610000e+002
9.570000e+002
9.590000e+002
9.570000e+002
9.600000e+002
9.590000e+002
9.600000e+002
9.590000e+002
9.590000e+002
9.620000e+002
9.630000e+002
9.600000e+002
9.600000e+002
9.580000e+002
9.600000e+002
9.600000e+002
9.580000e+002
9.580000e+002
9.520000e+002
9.530000e+002
9.580000e+002
9.590000e+002
9.590000e+002
9.570000e+002
9.540000e+002
9.560000e+002
9.550000e+002
9.530000e+002
9.470000e+002
9.390000e+002
9.340000e+002
9.300000e+002
9.270000e+002
9.220000e+002
9.210000e+002
9.330000e+002
9.590000e+002
9.910000e+002
1.026000e+003
1.074000e+003
1.127000e+003
1.172000e+003
1.201000e+003
1.211000e+003
1.191000e+003
1.129000e+003
1.048000e+003
9.780000e+002
9.390000e+002
9.330000e+002
9.400000e+002
9.480000e+002
9.520000e+002
9.510000e+002
9.490000e+002
9.480000e+002
9.530000e+002
9.530000e+002
9.500000e+002
9.490000e+002
9.470000e+002
9.480000e+002
9.510000e+002
9.500000e+002
9.500000e+002
9.510000e+002
9.480000e+002
9.500000e+002
9.490000e+002
9.510000e+002
9.500000e+002
9.480000e+002
9.490000e+002
9.510000e+002
9.520000e+002
9.520000e+002
9.530000e+002
9.530000e+002
9.500000e+002
9.510000e+002
9.530000e+002
9.540000e+002
9.540000e+002
9.540000e+002
9.520000e+002
9.520000e+002
9.520000e+002
9.540000e+002
9.530000e+002
9.510000e+002
9.500000e+002
9.520000e+002
9.540000e+002
9.530000e+002
9.540000e+002
9.530000e+002
9.500000e+002
9.490000e+002
9.520000e+002
9.540000e+002
9.550000e+002
9.540000e+002
9.500000e+002
9.500000e+002
9.530000e+002
9.540000e+002
9.550000e+002
9.520000e+002
9.500000e+002
9.510000e+002
9.520000e+002
9.540000e+002
9.530000e+002
9.510000e+002
9.510000e+002
9.500000e+002
9.510000e+002
9.540000e+002
9.540000e+002
9.520000e+002
9.520000e+002
9.530000e+002
9.550000e+002
9.540000e+002
9.550000e+002
9.530000e+002
9.500000e+002
9.510000e+002
9.530000e+002
9.520000e+002
9.510000e+002
9.510000e+002
9.480000e+002
9.470000e+002
9.490000e+002
9.500000e+002
9.490000e+002
9.470000e+002
9.450000e+002
9.490000e+002
9.470000e+002
9.480000e+002
9.500000e+002
9.470000e+002
9.470000e+002
9.480000e+002
9.500000e+002
9.520000e+002
9.540000e+002
9.570000e+002
9.580000e+002
9.610000e+002
9.650000e+002
9.660000e+002
9.660000e+002
9.670000e+002
9.660000e+002
9.680000e+002
9.680000e+002
9.720000e+002
9.730000e+002
9.700000e+002
9.690000e+002
9.720000e+002
9.740000e+002
9.750000e+002
9.740000e+002
9.720000e+002
9.710000e+002
9.750000e+002
9.770000e+002
9.750000e+002
9.760000e+002
9.740000e+002
9.710000e+002
9.740000e+002
9.740000e+002
9.740000e+002
9.740000e+002
9.730000e+002
9.710000e+002
9.720000e+002
9.760000e+002
9.740000e+002
9.750000e+002
9.740000e+002
9.700000e+002
9.710000e+002
9.700000e+002
9.710000e+002
9.710000e+002
9.690000e+002
9.670000e+002
9.690000e+002
9.710000e+002
9.700000e+002
9.700000e+002
9.680000e+002
9.670000e+002
9.670000e+002
9.680000e+002
9.670000e+002
9.680000e+002
9.670000e+002
9.640000e+002
9.660000e+002
9.670000e+002
9.700000e+002
9.680000e+002
9.650000e+002
9.660000e+002
9.660000e+002
9.650000e+002
9.660000e+002
9.670000e+002
9.630000e+002
9.610000e+002
9.620000e+002
9.620000e+002
9.660000e+002
9.650000e+002
9.620000e+002
9.600000e+002
9.610000e+002
9.620000e+002
9.640000e+002
9.640000e+002
9.610000e+002
9.600000e+002
9.610000e+002
9.600000e+002
9.660000e+002
9.640000e+002
9.640000e+002
9.610000e+002
9.620000e+002
9.640000e+002
9.640000e+002
9.660000e+002
9.620000e+002
9.590000e+002
9.610000e+002
9.630000e+002
9.630000e+002
9.630000e+002
9.610000e+002
9.590000e+002
9.600000e+002
9.620000e+002
9.640000e+002
9.650000e+002
9.610000e+002
9.600000e+002
9.630000e+002
9.640000e+002
9.660000e+002
9.650000e+002
9.650000e+002
9.620000e+002
9.650000e+002
9.650000e+002
9.670000e+002
9.650000e+002
9.650000e+002
9.620000e+002
9.640000e+002
9.670000e+002
9.680000e+002
9.690000e+002
9.680000e+002
9.710000e+002
9.750000e+002
9.780000e+002
9.760000e+002
9.760000e+002
9.760000e+002
9.750000e+002
9.800000e+002
9.800000e+002
9.810000e+002
9.840000e+002
9.840000e+002
9.820000e+002
9.830000e+002
9.850000e+002
9.830000e+002
9.820000e+002
9.810000e+002
9.790000e+002
9.790000e+002
9.840000e+002
9.840000e+002
9.820000e+002
9.790000e+002
9.800000e+002
9.850000e+002
9.880000e+002
9.890000e+002
9.830000e+002
9.750000e+002
9.710000e+002
9.690000e+002
9.680000e+002
9.670000e+002
9.640000e+002
9.620000e+002
9.590000e+002
9.600000e+002
9.590000e+002
9.620000e+002
9.590000e+002
9.580000e+002
9.560000e+002
9.570000e+002
9.580000e+002
9.590000e+002
9.600000e+002
9.560000e+002
9.550000e+002
9.560000e+002
9.580000e+002
9.570000e+002
9.580000e+002
9.560000e+002
9.560000e+002
9.570000e+002
9.570000e+002
9.580000e+002
9.570000e+002
9.550000e+002
9.490000e+002
9.450000e+002
9.380000e+002
9.360000e+002
9.340000e+002
9.340000e+002
9.290000e+002
9.280000e+002
9.220000e+002
9.140000e+002
9.090000e+002
9.150000e+002
9.260000e+002
9.490000e+002
9.740000e+002
1.000000e+003
1.036000e+003
1.081000e+003
1.129000e+003
1.172000e+003
1.196000e+003
1.202000e+003
1.170000e+003
1.109000e+003
1.027000e+003
9.670000e+002
9.370000e+002
9.340000e+002
9.370000e+002
9.470000e+002
9.480000e+002
9.500000e+002
9.500000e+002
9.500000e+002
9.520000e+002
9.520000e+002
9.500000e+002
9.470000e+002
9.510000e+002
9.520000e+002
9.510000e+002
9.510000e+002
9.490000e+002
9.470000e+002
9.520000e+002
9.510000e+002
9.530000e+002
9.490000e+002
9.480000e+002
9.490000e+002
9.530000e+002
9.530000e+002
9.520000e+002
9.510000e+002
9.480000e+002
9.500000e+002
9.530000e+002
9.540000e+002
9.530000e+002
9.510000e+002
9.480000e+002
9.510000e+002
9.530000e+002
9.530000e+002
9.510000e+002
9.470000e+002
9.460000e+002
9.490000e+002
9.530000e+002
9.510000e+002
9.520000e+002
9.530000e+002
9.510000e+002
9.510000e+002
9.530000e+002
9.550000e+002
9.550000e+002
9.510000e+002
9.520000e+002
9.490000e+002
9.530000e+002
9.520000e+002
9.510000e+002
9.510000e+002
9.500000e+002
9.520000e+002
9.530000e+002
9.520000e+002
9.510000e+002
9.470000e+002
9.480000e+002
9.510000e+002
9.530000e+002
9.570000e+002
9.520000e+002
9.520000e+002
9.470000e+002
9.480000e+002
9.490000e+002
9.520000e+002
9.520000e+002
9.510000e+002
9.490000e+002
9.510000e+002
9.530000e+002
9.520000e+002
9.540000e+002
9.520000e+002
9.500000e+002
9.500000e+002
9.510000e+002
9.500000e+002
9.480000e+002
9.460000e+002
9.470000e+002
9.480000e+002
9.500000e+002
9.500000e+002
9.510000e+002
9.510000e+002
9.460000e+002
9.490000e+002
9.500000e+002
9.530000e+002
9.510000e+002
9.520000e+002
9.500000e+002
9.540000e+002
9.560000e+002
9.590000e+002
9.600000e+002
9.610000e+002
9.590000e+002
9.620000e+002
9.650000e+002
9.670000e+002
9.660000e+002
9.660000e+002
9.690000e+002
9.700000e+002
9.710000e+002
9.720000e+002
9.720000e+002
9.690000e+002
9.690000e+002
9.670000e+002
9.720000e+002
9.720000e+002
9.710000e+002
9.700000e+002
9.680000e+002
9.690000e+002
9.730000e+002
9.730000e+002
9.750000e+002
9.730000e+002
9.720000e+002
9.730000e+002
9.730000e+002
9.720000e+002
9.710000e+002
9.680000e+002
9.650000e+002
9.660000e+002
9.690000e+002
9.680000e+002
9.680000e+002
9.680000e+002
9.670000e+002
9.670000e+002
9.680000e+002
9.700000e+002
9.670000e+002
9.640000e+002
9.620000e+002
9.640000e+002
9.660000e+002
9.680000e+002
9.640000e+002
9.660000e+002
9.620000e+002
9.640000e+002
9.650000e+002
9.660000e+002
9.670000e+002
9.650000e+002
9.590000e+002
9.610000e+002
9.620000e+002
9.630000e+002
9.640000e+002
9.610000e+002
9.580000e+002
9.600000e+002
9.600000e+002
9.610000e+002
9.600000e+002
9.590000e+002
9.570000e+002
9.580000e+002
9.590000e+002
9.620000e+002
9.610000e+002
9.610000e+002
9.570000e+002
9.600000e+002
9.620000e+002
9.610000e+002
9.620000e+002
9.600000e+002
9.570000e+002
9.590000e+002
9.590000e+002
9.610000e+002
9.620000e+002
9.600000e+002
9.580000e+002
9.600000e+002
9.600000e+002
9.620000e+002
9.580000e+002
9.580000e+002
9.550000e+002
9.560000e+002
9.580000e+002
9.600000e+002
9.610000e+002
9.570000e+002
9.570000e+002
9.580000e+002
9.620000e+002
9.620000e+002
9.610000e+002
9.580000e+002
9.600000e+002
9.610000e+002
9.640000e+002
9.670000e+002
9.680000e+002
9.710000e+002
9.720000e+002
9.710000e+002
9.720000e+002
9.730000e+002
9.720000e+002
9.740000e+002
9.730000e+002
9.760000e+002
9.780000e+002
9.830000e+002
9.820000e+002
9.790000e+002
9.770000e+002
9.790000e+002
9.790000e+002
9.780000e+002
9.790000e+002
9.760000e+002
9.760000e+002
9.780000e+002
9.770000e+002
9.740000e+002
9.740000e+002
9.730000e+002
9.770000e+002
9.800000e+002
9.830000e+002
9.810000e+002
9.760000e+002
9.710000e+002
9.680000e+002
9.680000e+002
9.700000e+002
9.700000e+002
9.660000e+002
9.600000e+002
9.570000e+002
9.560000e+002
9.580000e+002
9.580000e+002
9.570000e+002
9.540000e+002
9.520000e+002
9.540000e+002
9.540000e+002
9.550000e+002
9.540000e+002
9.530000e+002
9.510000e+002
9.520000e+002
9.530000e+002
9.540000e+002
9.560000e+002
9.520000e+002
9.500000e+002
9.500000e+002
9.530000e+002
9.550000e+002
9.540000e+002
9.500000e+002
9.470000e+002
9.420000e+002
9.360000e+002
9.320000e+002
9.260000e+002
9.160000e+002
9.110000e+002
9.140000e+002
9.270000e+002
9.510000e+002
9.730000e+002
9.990000e+002
1.042000e+003
1.096000e+003
1.144000e+003
1.174000e+003
1.183000e+003
1.164000e+003
1.112000e+003
1.043000e+003
9.870000e+002
9.500000e+002
9.300000e+002
9.260000e+002
9.300000e+002
9.360000e+002
9.390000e+002
9.420000e+002
9.420000e+002
9.420000e+002
9.400000e+002
9.440000e+002
9.450000e+002
9.430000e+002
9.420000e+002
9.430000e+002
9.400000e+002
9.450000e+002
9.450000e+002
9.460000e+002
9.450000e+002
9.450000e+002
9.420000e+002
9.440000e+002
9.440000e+002
9.420000e+002
9.440000e+002
9.430000e+002
9.420000e+002
9.420000e+002
9.440000e+002
9.460000e+002
9.460000e+002
9.440000e+002
9.440000e+002
9.450000e+002
9.460000e+002
9.470000e+002
9.460000e+002
9.420000e+002
9.420000e+002
9.420000e+002
9.410000e+002
9.420000e+002
9.430000e+002
9.400000e+002
9.400000e+002
9.400000e+002
9.410000e+002
9.420000e+002
9.410000e+002
9.390000e+002
9.390000e+002
9.400000e+002
9.390000e+002
9.400000e+002
9.420000e+002
9.420000e+002
9.410000e+002
9.420000e+002
9.420000e+002
9.440000e+002
9.430000e+002
9.430000e+002
9.390000e+002
9.400000e+002
9.420000e+002
9.440000e+002
9.430000e+002
9.410000e+002
9.400000e+002
9.420000e+002
9.420000e+002
9.440000e+002
9.420000e+002
9.410000e+002
9.400000e+002
9.420000e+002
9.440000e+002
9.460000e+002
9.440000e+002
9.410000e+002
9.400000e+002
9.410000e+002
9.410000e+002
9.440000e+002
9.410000e+002
9.380000e+002
9.340000e+002
9.360000e+002
9.360000e+002
9.370000e+002
9.370000e+002
9.360000e+002
9.340000e+002
9.370000e+002
9.360000e+002
9.380000e+002
9.360000e+002
9.350000e+002
9.350000e+002
9.360000e+002
9.370000e+002
9.400000e+002
9.410000e+002
9.420000e+002
9.430000e+002
9.480000e+002
9.490000e+002
9.500000e+002
9.500000e+002
9.500000e+002
9.520000e+002
9.530000e+002
9.590000e+002
9.630000e+002
9.620000e+002
9.600000e+002
9.590000e+002
9.590000e+002
9.610000e+002
9.640000e+002
9.630000e+002
9.600000e+002
9.580000e+002
9.580000e+002
9.620000e+002
9.620000e+002
9.620000e+002
9.630000e+002
9.620000e+002
9.600000e+002
9.630000e+002
9.640000e+002
9.640000e+002
9.630000e+002
9.600000e+002
9.600000e+002
9.610000e+002
9.610000e+002
9.620000e+002
9.580000e+002
9.570000e+002
9.570000e+002
9.600000e+002
9.610000e+002
9.610000e+002
9.590000e+002
9.580000e+002
9.570000e+002
9.600000e+002
9.640000e+002
9.640000e+002
9.600000e+002
9.600000e+002
9.580000e+002
9.600000e+002
9.600000e+002
9.590000e+002
9.560000e+002
9.530000e+002
9.550000e+002
9.540000e+002
9.550000e+002
9.550000e+002
9.520000e+002
9.520000e+002
9.550000e+002
9.560000e+002
9.560000e+002
9.530000e+002
9.540000e+002
9.540000e+002
9.530000e+002
9.560000e+002
9.570000e+002
9.560000e+002
9.540000e+002
9.530000e+002
9.530000e+002
9.530000e+002
9.550000e+002
9.550000e+002
9.540000e+002
9.520000e+002
9.510000e+002
9.510000e+002
9.540000e+002
9.540000e+002
9.520000e+002
9.500000e+002
9.520000e+002
9.540000e+002
9.570000e+002
9.540000e+002
9.540000e+002
9.550000e+002
9.560000e+002
9.560000e+002
9.560000e+002
9.560000e+002
9.550000e+002
9.540000e+002
9.520000e+002
9.540000e+002
9.570000e+002
9.550000e+002
9.540000e+002
9.540000e+002
9.530000e+002
9.560000e+002
9.570000e+002
9.580000e+002
9.560000e+002
9.530000e+002
9.530000e+002
9.580000e+002
9.610000e+002
9.610000e+002
9.610000e+002
9.600000e+002
9.640000e+002
9.640000e+002
9.680000e+002
9.710000e+002
9.680000e+002
9.670000e+002
9.710000e+002
9.770000e+002
9.780000e+002
9.780000e+002
9.750000e+002
9.730000e+002
9.740000e+002
9.750000e+002
9.740000e+002
9.730000e+002
9.710000e+002
9.700000e+002
9.660000e+002
9.680000e+002
9.690000e+002
9.720000e+002
9.730000e+002
9.720000e+002
9.690000e+002
9.650000e+002
9.640000e+002
9.630000e+002
9.570000e+002
9.530000e+002
9.540000e+002
9.540000e+002
9.540000e+002
9.530000e+002
9.500000e+002
9.500000e+002
9.520000e+002
9.510000e+002
9.530000e+002
9.510000e+002
9.490000e+002
9.470000e+002
9.480000e+002
9.490000e+002
9.530000e+002
9.500000e+002
9.470000e+002
9.460000e+002
9.460000e+002
9.500000e+002
9.520000e+002
9.500000e+002
9.480000e+002
9.470000e+002
9.480000e+002
9.490000e+002
9.500000e+002
9.480000e+002
9.430000e+002
9.350000e+002
9.310000e+002
9.280000e+002
9.270000e+002
9.190000e+002
9.130000e+002
9.170000e+002
9.340000e+002
9.590000e+002
9.870000e+002
1.019000e+003
1.061000e+003
1.110000e+003
1.156000e+003
1.187000e+003
1.194000e+003
1.174000e+003
1.121000e+003
1.046000e+003
9.820000e+002
9.460000e+002
9.320000e+002
9.270000e+002
9.300000e+002
9.340000e+002
9.390000e+002
9.410000e+002
9.430000e+002
9.410000e+002
9.410000e+002
9.400000e+002
9.440000e+002
9.450000e+002
9.470000e+002
9.450000e+002
9.440000e+002
9.400000e+002
9.420000e+002
9.440000e+002
9.440000e+002
9.430000e+002
9.430000e+002
9.370000e+002
9.400000e+002
9.420000e+002
9.430000e+002
9.410000e+002
9.380000e+002
9.360000e+002
9.370000e+002
9.410000e+002
9.400000e+002
9.380000e+002
9.410000e+002
9.380000e+002
9.390000e+002
9.400000e+002
9.400000e+002
9.410000e+002
9.390000e+002
9.390000e+002
9.400000e+002
9.420000e+002
9.420000e+002
9.420000e+002
9.400000e+002
9.380000e+002
9.400000e+002
9.410000e+002
9.450000e+002
9.430000e+002
9.410000e+002
9.380000e+002
9.400000e+002
9.400000e+002
9.410000e+002
9.400000e+002
9.390000e+002
9.360000e+002
9.380000e+002
9.390000e+002
9.410000e+002
9.400000e+002
9.390000e+002
9.360000e+002
9.380000e+002
9.380000e+002
9.390000e+002
9.400000e+002
9.410000e+002
9.390000e+002
9.380000e+002
9.390000e+002
9.410000e+002
9.430000e+002
9.430000e+002
9.390000e+002
9.410000e+002
9.400000e+002
9.400000e+002
9.400000e+002
9.370000e+002
9.370000e+002
9.360000e+002
9.400000e+002
9.380000e+002
9.340000e+002
9.330000e+002
9.310000e+002
9.310000e+002
9.310000e+002
9.310000e+002
9.310000e+002
9.300000e+002
9.260000e+002
9.270000e+002
9.320000e+002
9.330000e+002
9.320000e+002
9.330000e+002
9.330000e+002
9.360000e+002
9.390000e+002
9.410000e+002
9.440000e+002
9.430000e+002
9.440000e+002
9.470000e+002
9.510000e+002
9.510000e+002
9.520000e+002
9.500000e+002
9.490000e+002
9.530000e+002
9.560000e+002
9.580000e+002
9.580000e+002
9.580000e+002
9.560000e+002
9.570000e+002
9.600000e+002
9.630000e+002
9.610000e+002
9.600000e+002
9.600000e+002
9.600000e+002
9.610000e+002
9.620000e+002
9.620000e+002
9.610000e+002
9.580000e+002
9.600000e+002
9.600000e+002
9.620000e+002
9.600000e+002
9.580000e+002
9.560000e+002
9.580000e+002
9.590000e+002
9.590000e+002
9.600000e+002
9.560000e+002
9.540000e+002
9.560000e+002
9.600000e+002
9.610000e+002
9.590000e+002
9.560000e+002
9.550000e+002
9.550000e+002
9.560000e+002
9.580000e+002
9.570000e+002
9.550000e+002
9.520000e+002
9.530000e+002
9.560000e+002
9.580000e+002
9.570000e+002
9.550000e+002
9.510000e+002
9.500000e+002
9.540000e+002
9.560000e+002
9.570000e+002
9.520000e+002
9.530000e+002
9.560000e+002
9.570000e+002
9.570000e+002
9.600000e+002
9.570000e+002
9.530000e+002
9.540000e+002
9.550000e+002
9.560000e+002
9.570000e+002
9.540000e+002
9.500000e+002
9.520000e+002
9.530000e+002
9.540000e+002
9.550000e+002
9.510000e+002
9.520000e+002
9.520000e+002
9.540000e+002
9.550000e+002
9.530000e+002
9.530000e+002
9.510000e+002
9.520000e+002
9.550000e+002
9.550000e+002
9.540000e+002
9.530000e+002
9.520000e+002
9.530000e+002
9.540000e+002
9.570000e+002
9.570000e+002
9.530000e+002
9.550000e+002
9.560000e+002
9.580000e+002
9.560000e+002
9.550000e+002
9.540000e+002
9.530000e+002
9.540000e+002
9.570000e+002
9.580000e+002
9.580000e+002
9.580000e+002
9.580000e+002
9.630000e+002
9.670000e+002
9.690000e+002
9.680000e+002
9.670000e+002
9.660000e+002
9.690000e+002
9.720000e+002
9.750000e+002
9.760000e+002
9.760000e+002
9.760000e+002
9.770000e+002
9.790000e+002
9.800000e+002
9.780000e+002
9.760000e+002
9.730000e+002
9.730000e+002
9.760000e+002
9.760000e+002
9.740000e+002
9.700000e+002
9.700000e+002
9.760000e+002
9.780000e+002
9.790000e+002
9.710000e+002
9.650000e+002
9.630000e+002
9.590000e+002
9.610000e+002
9.590000e+002
9.580000e+002
9.550000e+002
9.520000e+002
9.510000e+002
9.530000e+002
9.550000e+002
9.560000e+002
9.570000e+002
9.520000e+002
9.530000e+002
9.550000e+002
9.570000e+002
9.530000e+002
9.540000e+002
9.490000e+002
9.490000e+002
9.510000e+002
9.510000e+002
9.540000e+002
9.500000e+002
9.480000e+002
9.510000e+002
9.500000e+002
9.530000e+002
9.500000e+002
9.480000e+002
9.470000e+002
9.470000e+002
9.440000e+002
9.380000e+002
9.310000e+002
9.270000e+002
9.200000e+002
9.130000e+002
9.190000e+002
9.370000e+002
9.630000e+002
9.930000e+002
1.026000e+003
1.076000e+003
1.131000e+003
1.176000e+003
1.202000e+003
1.205000e+003
1.165000e+003
1.096000e+003
1.018000e+003
9.600000e+002
9.330000e+002
9.290000e+002
9.360000e+002
9.450000e+002
9.480000e+002
9.480000e+002
9.470000e+002
9.450000e+002
9.440000e+002
9.430000e+002
9.450000e+002
9.420000e+002
9.460000e+002
9.450000e+002
9.430000e+002
9.430000e+002
9.450000e+002
9.470000e+002
9.470000e+002
9.430000e+002
9.430000e+002
9.440000e+002
9.470000e+002
9.480000e+002
9.470000e+002
9.430000e+002
9.420000e+002
9.440000e+002
9.450000e+002
9.470000e+002
9.450000e+002
9.420000e+002
9.430000e+002
9.430000e+002
9.450000e+002
9.460000e+002
9.450000e+002
9.450000e+002
9.430000e+002
9.420000e+002
9.440000e+002
9.470000e+002
9.450000e+002
9.440000e+002
9.450000e+002
9.470000e+002
9.470000e+002
9.490000e+002
9.490000e+002
9.480000e+002
9.450000e+002
9.470000e+002
9.460000e+002
9.470000e+002
9.480000e+002
9.460000e+002
9.440000e+002
9.440000e+002
9.460000e+002
9.510000e+002
9.490000e+002
9.470000e+002
9.440000e+002
9.440000e+002
9.460000e+002
9.480000e+002
9.490000e+002
9.470000e+002
9.450000e+002
9.480000e+002
9.500000e+002
9.510000e+002
9.510000e+002
9.490000e+002
9.470000e+002
9.490000e+002
9.490000e+002
9.510000e+002
9.500000e+002
9.490000e+002
9.440000e+002
9.450000e+002
9.430000e+002
9.500000e+002
9.470000e+002
9.440000e+002
9.420000e+002
9.440000e+002
9.450000e+002
9.490000e+002
9.480000e+002
9.470000e+002
9.430000e+002
9.470000e+002
9.490000e+002
9.500000e+002
9.510000e+002
9.510000e+002
9.540000e+002
9.530000e+002
9.600000e+002
9.620000e+002
9.620000e+002
9.630000e+002
9.620000e+002
9.660000e+002
9.680000e+002
9.680000e+002
9.700000e+002
9.680000e+002
9.670000e+002
9.680000e+002
9.670000e+002
9.710000e+002
9.700000e+002
9.690000e+002
9.660000e+002
9.660000e+002
9.690000e+002
9.690000e+002
9.700000e+002
9.690000e+002
9.660000e+002
9.670000e+002
9.670000e+002
9.720000e+002
9.720000e+002
9.690000e+002
9.670000e+002
9.690000e+002
9.710000e+002
9.700000e+002
9.680000e+002
9.660000e+002
9.650000e+002
9.640000e+002
9.680000e+002
9.680000e+002
9.690000e+002
9.660000e+002
9.640000e+002
9.630000e+002
9.670000e+002
9.670000e+002
9.670000e+002
9.650000e+002
9.640000e+002
9.640000e+002
9.650000e+002
9.680000e+002
9.650000e+002
9.660000e+002
9.630000e+002
9.630000e+002
9.640000e+002
9.670000e+002
9.670000e+002
9.620000e+002
9.610000e+002
9.630000e+002
9.630000e+002
9.650000e+002
9.640000e+002
9.600000e+002
9.570000e+002
9.600000e+002
9.600000e+002
9.620000e+002
9.610000e+002
9.620000e+002
9.580000e+002
9.600000e+002
9.620000e+002
9.630000e+002
9.630000e+002
9.610000e+002
9.610000e+002
9.610000e+002
9.630000e+002
9.630000e+002
9.640000e+002
9.620000e+002
9.620000e+002
9.620000e+002
9.620000e+002
9.650000e+002
9.640000e+002
9.590000e+002
9.590000e+002
9.580000e+002
9.600000e+002
9.620000e+002
9.630000e+002
9.610000e+002
9.580000e+002
9.600000e+002
9.620000e+002
9.630000e+002
9.640000e+002
9.650000e+002
9.600000e+002
9.620000e+002
9.640000e+002
9.690000e+002
9.700000e+002
9.720000e+002
9.740000e+002
9.770000e+002
9.780000e+002
9.790000e+002
9.780000e+002
9.780000e+002
9.760000e+002
9.780000e+002
9.790000e+002
9.830000e+002
9.830000e+002
9.840000e+002
9.820000e+002
9.850000e+002
9.840000e+002
9.860000e+002
9.840000e+002
9.820000e+002
9.790000e+002
9.790000e+002
9.800000e+002
9.800000e+002
9.800000e+002
9.780000e+002
9.740000e+002
9.750000e+002
9.780000e+002
9.830000e+002
9.870000e+002
9.850000e+002
9.790000e+002
9.740000e+002
9.730000e+002
9.710000e+002
9.690000e+002
9.630000e+002
9.600000e+002
9.590000e+002
9.590000e+002
9.580000e+002
9.580000e+002
9.590000e+002
9.570000e+002
9.560000e+002
9.570000e+002
9.600000e+002
9.570000e+002
9.550000e+002
9.530000e+002
9.540000e+002
9.530000e+002
9.540000e+002
9.550000e+002
9.560000e+002
9.530000e+002
9.540000e+002
9.560000e+002
9.560000e+002
9.560000e+002
9.530000e+002
9.440000e+002
9.370000e+002
9.330000e+002
9.300000e+002
9.240000e+002
9.160000e+002
9.150000e+002
9.310000e+002
9.530000e+002
9.820000e+002
1.017000e+003
1.061000e+003
1.111000e+003
1.159000e+003
1.188000e+003
1.189000e+003
1.152000e+003
1.088000e+003
1.010000e+003
9.560000e+002
9.350000e+002
9.350000e+002
9.420000e+002
9.480000e+002
9.490000e+002
9.490000e+002
9.500000e+002
9.510000e+002
9.520000e+002
9.500000e+002
9.490000e+002
9.500000e+002
9.520000e+002
9.540000e+002
9.530000e+002
9.510000e+002
9.480000e+002
9.480000e+002
9.500000e+002
9.510000e+002
9.510000e+002
9.480000e+002
9.470000e+002
9.460000e+002
9.480000e+002
9.490000e+002
9.490000e+002
9.480000e+002
9.460000e+002
9.480000e+002
9.490000e+002
9.500000e+002
9.510000e+002
9.490000e+002
9.470000e+002
9.510000e+002
9.520000e+002
9.540000e+002
9.530000e+002
9.530000e+002
9.500000e+002
9.510000e+002
9.540000e+002
9.520000e+002
9.510000e+002
9.510000e+002
9.490000e+002
9.490000e+002
9.530000e+002
9.530000e+002
9.500000e+002
9.490000e+002
9.480000e+002
9.470000e+002
9.500000e+002
9.500000e+002
9.520000e+002
9.500000e+002
9.490000e+002
9.510000e+002
9.530000e+002
9.550000e+002
9.520000e+002
9.530000e+002
9.510000e+002
9.520000e+002
9.550000e+002
9.570000e+002
9.570000e+002
9.530000e+002
9.530000e+002
9.540000e+002
9.560000e+002
9.540000e+002
9.540000e+002
9.530000e+002
9.510000e+002
9.520000e+002
9.510000e+002
9.510000e+002
9.510000e+002
9.500000e+002
9.490000e+002
9.480000e+002
9.510000e+002
9.540000e+002
9.520000e+002
9.510000e+002
9.480000e+002
9.490000e+002
9.500000e+002
9.520000e+002
9.510000e+002
9.490000e+002
9.480000e+002
9.490000e+002
9.520000e+002
9.530000e+002
9.530000e+002
9.530000e+002
9.540000e+002
9.540000e+002
9.560000e+002
9.580000e+002
9.590000e+002
9.570000e+002
9.570000e+002
9.580000e+002
9.620000e+002
9.640000e+002
9.650000e+002
9.630000e+002
9.620000e+002
9.670000e+002
9.670000e+002
9.710000e+002
9.700000e+002
9.670000e+002
9.660000e+002
9.690000e+002
9.700000e+002
9.730000e+002
9.710000e+002
9.710000e+002
9.690000e+002
9.700000e+002
9.720000e+002
9.740000e+002
9.720000e+002
9.700000e+002
9.680000e+002
9.660000e+002
9.660000e+002
9.680000e+002
9.680000e+002
9.660000e+002
9.630000e+002
9.640000e+002
9.640000e+002
9.650000e+002
9.640000e+002
9.660000e+002
9.640000e+002
9.620000e+002
9.620000e+002
9.650000e+002
9.650000e+002
9.640000e+002
9.600000e+002
9.610000e+002
9.610000e+002
9.640000e+002
9.620000e+002
9.630000e+002
9.610000e+002
9.630000e+002
9.630000e+002
9.630000e+002
9.640000e+002
9.630000e+002
9.620000e+002
9.610000e+002
9.610000e+002
9.610000e+002
9.600000e+002
9.570000e+002
9.550000e+002
9.570000e+002
9.620000e+002
9.590000e+002
9.600000e+002
9.580000e+002
9.590000e+002
9.590000e+002
9.600000e+002
9.600000e+002
9.610000e+002
9.590000e+002
9.550000e+002
9.570000e+002
9.590000e+002
9.590000e+002
9.580000e+002
9.570000e+002
9.560000e+002
9.570000e+002
9.590000e+002
9.600000e+002
9.610000e+002
9.570000e+002
9.550000e+002
9.570000e+002
9.590000e+002
9.590000e+002
9.600000e+002
9.590000e+002
9.570000e+002
9.600000e+002
9.600000e+002
9.620000e+002
9.620000e+002
9.600000e+002
9.580000e+002
9.560000e+002
9.590000e+002
9.630000e+002
9.630000e+002
9.660000e+002
9.660000e+002
9.700000e+002
9.710000e+002
9.710000e+002
9.720000e+002
9.720000e+002
9.700000e+002
9.690000e+002
9.720000e+002
9.750000e+002
9.770000e+002
9.780000e+002
9.750000e+002
9.760000e+002
9.780000e+002
9.760000e+002
9.790000e+002
9.760000e+002
9.750000e+002
9.760000e+002
9.800000e+002
9.800000e+002
9.780000e+002
9.750000e+002
9.730000e+002
9.760000e+002
9.810000e+002
9.790000e+002
9.730000e+002
9.670000e+002
9.620000e+002
9.620000e+002
9.580000e+002
9.570000e+002
9.540000e+002
9.540000e+002
9.520000e+002
9.530000e+002
9.560000e+002
9.560000e+002
9.570000e+002
9.540000e+002
9.520000e+002
9.520000e+002
9.550000e+002
9.550000e+002
9.540000e+002
9.540000e+002
9.520000e+002
9.540000e+002
9.540000e+002
9.550000e+002
9.530000e+002
9.530000e+002
9.500000e+002
9.490000e+002
9.460000e+002
9.390000e+002
9.330000e+002
9.290000e+002
9.240000e+002
9.160000e+002
9.100000e+002
9.220000e+002
9.410000e+002
9.570000e+002
9.720000e+002
9.940000e+002
1.023000e+003
1.065000e+003
1.118000e+003
1.160000e+003
1.189000e+003
1.209000e+003
1.218000e+003
1.201000e+003
1.162000e+003
1.107000e+003
1.045000e+003
9.940000e+002
9.550000e+002
9.370000e+002
9.310000e+002
9.330000e+002
9.390000e+002
9.410000e+002
9.450000e+002
9.490000e+002
9.500000e+002
9.450000e+002
9.440000e+002
9.440000e+002
9.420000e+002
9.440000e+002
9.430000e+002
9.440000e+002
9.430000e+002
9.450000e+002
9.460000e+002
9.480000e+002
9.470000e+002
9.430000e+002
9.400000e+002
9.430000e+002
9.440000e+002
9.460000e+002
9.480000e+002
9.450000e+002
9.450000e+002
9.440000e+002
9.460000e+002
9.420000e+002
9.430000e+002
9.420000e+002
9.420000e+002
9.450000e+002
9.470000e+002
9.450000e+002
9.430000e+002
9.400000e+002
9.370000e+002
9.410000e+002
9.430000e+002
9.420000e+002
9.440000e+002
9.420000e+002
9.410000e+002
9.420000e+002
9.440000e+002
9.430000e+002
9.460000e+002
9.460000e+002
9.440000e+002
9.460000e+002
9.460000e+002
9.460000e+002
9.450000e+002
9.400000e+002
9.400000e+002
9.410000e+002
9.420000e+002
9.450000e+002
9.450000e+002
9.440000e+002
9.410000e+002
9.410000e+002
9.440000e+002
9.440000e+002
9.470000e+002
9.460000e+002
9.420000e+002
9.450000e+002
9.460000e+002
9.480000e+002
9.490000e+002
9.460000e+002
9.430000e+002
9.400000e+002
9.410000e+002
9.410000e+002
9.410000e+002
9.370000e+002
9.310000e+002
9.330000e+002
9.310000e+002
9.320000e+002
9.350000e+002
9.330000e+002
9.310000e+002
9.290000e+002
9.330000e+002
9.320000e+002
9.340000e+002
9.330000e+002
9.300000e+002
9.330000e+002
9.360000e+002
9.400000e+002
9.410000e+002
9.400000e+002
9.420000e+002
9.420000e+002
9.500000e+002
9.520000e+002
9.540000e+002
9.540000e+002
9.550000e+002
9.570000e+002
9.600000e+002
9.640000e+002
9.600000e+002
9.610000e+002
9.560000e+002
9.590000e+002
9.640000e+002
9.640000e+002
9.640000e+002
9.620000e+002
9.580000e+002
9.620000e+002
9.630000e+002
9.640000e+002
9.630000e+002
9.610000e+002
9.580000e+002
9.620000e+002
9.630000e+002
9.620000e+002
9.630000e+002
9.620000e+002
9.620000e+002
9.620000e+002
9.640000e+002
9.630000e+002
9.620000e+002
9.620000e+002
9.600000e+002
9.610000e+002
9.580000e+002
9.610000e+002
9.600000e+002
9.560000e+002
9.560000e+002
9.570000e+002
9.580000e+002
9.600000e+002
9.600000e+002
9.590000e+002
9.540000e+002
9.560000e+002
9.570000e+002
9.570000e+002
9.550000e+002
9.540000e+002
9.520000e+002
9.520000e+002
9.550000e+002
9.570000e+002
9.570000e+002
9.570000e+002
9.550000e+002
9.570000e+002
9.570000e+002
9.580000e+002
9.570000e+002
9.570000e+002
9.540000e+002
9.550000e+002
9.530000e+002
9.550000e+002
9.550000e+002
9.530000e+002
9.510000e+002
9.520000e+002
9.530000e+002
9.550000e+002
9.550000e+002
9.550000e+002
9.520000e+002
9.550000e+002
9.560000e+002
9.570000e+002
9.560000e+002
9.550000e+002
9.500000e+002
9.500000e+002
9.520000e+002
9.560000e+002
9.540000e+002
9.510000e+002
9.530000e+002
9.540000e+002
9.560000e+002
9.560000e+002
9.530000e+002
9.530000e+002
9.540000e+002
9.540000e+002
9.570000e+002
9.560000e+002
9.560000e+002
9.580000e+002
9.540000e+002
9.610000e+002
9.640000e+002
9.660000e+002
9.690000e+002
9.680000e+002
9.670000e+002
9.690000e+002
9.700000e+002
9.730000e+002
9.760000e+002
9.740000e+002
9.730000e+002
9.760000e+002
9.790000e+002
9.790000e+002
9.760000e+002
9.730000e+002
9.720000e+002
9.690000e+002
9.720000e+002
9.750000e+002
9.730000e+002
9.710000e+002
9.680000e+002
9.700000e+002
9.740000e+002
9.770000e+002
9.780000e+002
9.750000e+002
9.700000e+002
9.680000e+002
9.680000e+002
9.660000e+002
9.610000e+002
9.570000e+002
9.530000e+002
9.530000e+002
9.530000e+002
9.520000e+002
9.520000e+002
9.490000e+002
9.480000e+002
9.520000e+002
9.530000e+002
9.540000e+002
9.550000e+002
9.500000e+002
9.500000e+002
9.530000e+002
9.530000e+002
9.540000e+002
9.550000e+002
9.530000e+002
9.530000e+002
9.520000e+002
9.530000e+002
9.530000e+002
9.530000e+002
9.520000e+002
9.490000e+002
9.500000e+002
9.460000e+002
9.390000e+002
9.310000e+002
9.260000e+002
9.190000e+002
9.120000e+002
9.120000e+002
9.250000e+002
9.520000e+002
9.800000e+002
1.015000e+003
1.062000e+003
1.119000e+003
1.169000e+003
1.203000e+003
1.203000e+003
1.166000e+003
1.094000e+003
1.013000e+003
9.540000e+002
9.280000e+002
9.260000e+002
9.310000e+002
9.410000e+002
9.430000e+002
9.450000e+002
9.430000e+002
9.400000e+002
9.450000e+002
9.410000e+002
9.440000e+002
9.460000e+002
9.470000e+002
9.450000e+002
9.430000e+002
9.450000e+002
9.440000e+002
9.460000e+002
9.460000e+002
9.440000e+002
9.410000e+002
9.430000e+002
9.460000e+002
9.480000e+002
9.480000e+002
9.430000e+002
9.460000e+002
9.440000e+002
9.460000e+002
9.480000e+002
9.480000e+002
9.430000e+002
9.440000e+002
9.420000e+002
9.440000e+002
9.450000e+002
9.440000e+002
9.440000e+002
9.430000e+002
9.460000e+002
9.480000e+002
9.470000e+002
9.470000e+002
9.460000e+002
9.430000e+002
9.440000e+002
9.440000e+002
9.460000e+002
9.460000e+002
9.420000e+002
9.420000e+002
9.430000e+002
9.440000e+002
9.420000e+002
9.430000e+002
9.420000e+002
9.410000e+002
9.420000e+002
9.430000e+002
9.450000e+002
9.430000e+002
9.440000e+002
9.440000e+002
9.450000e+002
9.430000e+002
9.480000e+002
9.470000e+002
9.460000e+002
9.420000e+002
9.450000e+002
9.460000e+002
9.480000e+002
9.470000e+002
9.430000e+002
9.430000e+002
9.430000e+002
9.440000e+002
9.420000e+002
9.420000e+002
9.410000e+002
9.370000e+002
9.380000e+002
9.410000e+002
9.400000e+002
9.400000e+002
9.360000e+002
9.360000e+002
9.370000e+002
9.370000e+002
9.370000e+002
9.380000e+002
9.350000e+002
9.350000e+002
9.400000e+002
9.390000e+002
9.420000e+002
9.430000e+002
9.440000e+002
9.420000e+002
9.480000e+002
9.500000e+002
9.540000e+002
9.560000e+002
9.530000e+002
9.550000e+002
9.560000e+002
9.610000e+002
9.600000e+002
9.640000e+002
9.640000e+002
9.610000e+002
9.630000e+002
9.640000e+002
9.680000e+002
9.660000e+002
9.660000e+002
9.640000e+002
9.650000e+002
9.650000e+002
9.680000e+002
9.670000e+002
9.660000e+002
9.650000e+002
9.670000e+002
9.680000e+002
9.690000e+002
9.710000e+002
9.680000e+002
9.650000e+002
9.680000e+002
9.680000e+002
9.690000e+002
9.660000e+002
9.650000e+002
9.620000e+002
9.660000e+002
9.660000e+002
9.690000e+002
9.700000e+002
9.650000e+002
9.610000e+002
9.620000e+002
9.640000e+002
9.650000e+002
9.660000e+002
9.640000e+002
9.610000e+002
9.630000e+002
9.640000e+002
9.660000e+002
9.620000e+002
9.610000e+002
9.580000e+002
9.620000e+002
9.630000e+002
9.650000e+002
9.650000e+002
9.630000e+002
9.590000e+002
9.610000e+002
9.610000e+002
9.620000e+002
9.640000e+002
9.610000e+002
9.570000e+002
9.590000e+002
9.590000e+002
9.610000e+002
9.620000e+002
9.600000e+002
9.570000e+002
9.590000e+002
9.620000e+002
9.630000e+002
9.630000e+002
9.600000e+002
9.590000e+002
9.610000e+002
9.620000e+002
9.640000e+002
9.610000e+002
9.590000e+002
9.600000e+002
9.600000e+002
9.600000e+002
9.620000e+002
9.620000e+002
9.620000e+002
9.610000e+002
9.630000e+002
9.670000e+002
9.650000e+002
9.630000e+002
9.620000e+002
9.610000e+002
9.640000e+002
9.610000e+002
9.630000e+002
9.630000e+002
9.590000e+002
9.590000e+002
9.610000e+002
9.640000e+002
9.650000e+002
9.620000e+002
9.610000e+002
9.600000e+002
9.610000e+002
9.620000e+002
9.650000e+002
9.670000e+002
9.700000e+002
9.740000e+002
9.750000e+002
9.780000e+002
9.800000e+002
9.790000e+002
9.770000e+002
9.780000e+002
9.800000e+002
9.830000e+002
9.860000e+002
9.860000e+002
9.860000e+002
9.830000e+002
9.830000e+002
9.830000e+002
9.820000e+002
9.810000e+002
9.790000e+002
9.780000e+002
9.790000e+002
9.800000e+002
9.800000e+002
9.760000e+002
9.760000e+002
9.780000e+002
9.830000e+002
9.850000e+002
9.850000e+002
9.800000e+002
9.750000e+002
9.690000e+002
9.720000e+002
9.690000e+002
9.670000e+002
9.640000e+002
9.640000e+002
9.620000e+002
9.620000e+002
9.600000e+002
9.600000e+002
9.590000e+002
9.570000e+002
9.550000e+002
9.570000e+002
9.570000e+002
9.580000e+002
9.570000e+002
9.550000e+002
9.520000e+002
9.550000e+002
9.570000e+002
9.550000e+002
9.550000e+002
9.530000e+002
9.520000e+002
9.530000e+002
9.560000e+002
9.560000e+002
9.540000e+002
9.540000e+002
9.530000e+002
9.530000e+002
9.530000e+002
9.500000e+002
9.390000e+002
9.310000e+002
9.280000e+002
9.240000e+002
9.180000e+002
9.170000e+002
9.270000e+002
9.450000e+002
9.730000e+002
1.005000e+003
1.043000e+003
1.094000e+003
1.150000e+003
1.193000e+003
1.215000e+003
1.219000e+003
1.189000e+003
1.120000e+003
1.035000e+003
9.700000e+002
9.330000e+002
9.270000e+002
9.360000e+002
9.430000e+002
9.490000e+002
9.490000e+002
9.460000e+002
9.480000e+002
9.520000e+002
9.530000e+002
9.550000e+002
9.510000e+002
9.490000e+002
9.500000e+002
9.500000e+002
9.530000e+002
9.500000e+002
9.490000e+002
9.480000e+002
9.470000e+002
9.480000e+002
9.480000e+002
9.480000e+002
9.470000e+002
9.450000e+002
9.450000e+002
9.460000e+002
9.470000e+002
9.480000e+002
9.480000e+002
9.450000e+002
9.460000e+002
9.480000e+002
9.500000e+002
9.490000e+002
9.470000e+002
9.480000e+002
9.490000e+002
9.510000e+002
9.520000e+002
9.510000e+002
9.510000e+002
9.470000e+002
9.500000e+002
9.510000e+002
9.530000e+002
9.470000e+002
9.450000e+002
9.450000e+002
9.470000e+002
9.500000e+002
9.480000e+002
9.500000e+002
9.490000e+002
9.460000e+002
9.470000e+002
9.480000e+002
9.500000e+002
9.500000e+002
9.470000e+002
9.470000e+002
9.480000e+002
9.470000e+002
9.500000e+002
9.490000e+002
9.490000e+002
9.480000e+002
9.480000e+002
9.530000e+002
9.520000e+002
9.510000e+002
9.500000e+002
9.480000e+002
9.500000e+002
9.490000e+002
9.520000e+002
9.500000e+002
9.480000e+002
9.470000e+002
9.490000e+002
9.490000e+002
9.500000e+002
9.500000e+002
9.470000e+002
9.440000e+002
9.450000e+002
9.470000e+002
9.450000e+002
9.480000e+002
9.440000e+002
9.440000e+002
9.440000e+002
9.460000e+002
9.460000e+002
9.470000e+002
9.440000e+002
9.440000e+002
9.470000e+002
9.480000e+002
9.480000e+002
9.470000e+002
9.470000e+002
9.430000e+002
9.450000e+002
9.480000e+002
9.500000e+002
9.500000e+002
9.480000e+002
9.510000e+002
9.530000e+002
9.570000e+002
9.590000e+002
9.600000e+002
9.600000e+002
9.580000e+002
9.610000e+002
9.640000e+002
9.650000e+002
9.670000e+002
9.650000e+002
9.660000e+002
9.670000e+002
9.700000e+002
9.720000e+002
9.710000e+002
9.690000e+002
9.680000e+002
9.690000e+002
9.700000e+002
9.700000e+002
9.720000e+002
9.700000e+002
9.680000e+002
9.670000e+002
9.690000e+002
9.710000e+002
9.700000e+002
9.670000e+002
9.670000e+002
9.670000e+002
9.690000e+002
9.680000e+002
9.690000e+002
9.670000e+002
9.650000e+002
9.650000e+002
9.670000e+002
9.680000e+002
9.700000e+002
9.670000e+002
9.690000e+002
9.660000e+002
9.670000e+002
9.680000e+002
9.660000e+002
9.640000e+002
9.620000e+002
9.620000e+002
9.620000e+002
9.640000e+002
9.640000e+002
9.610000e+002
9.590000e+002
9.610000e+002
9.630000e+002
9.620000e+002
9.620000e+002
9.610000e+002
9.580000e+002
9.590000e+002
9.600000e+002
9.600000e+002
9.610000e+002
9.590000e+002
9.580000e+002
9.570000e+002
9.590000e+002
9.600000e+002
9.600000e+002
9.610000e+002
9.600000e+002
9.620000e+002
9.620000e+002
9.640000e+002
9.630000e+002
9.600000e+002
9.560000e+002
9.570000e+002
9.580000e+002
9.600000e+002
9.580000e+002
9.580000e+002
9.570000e+002
9.560000e+002
9.570000e+002
9.590000e+002
9.560000e+002
9.550000e+002
9.560000e+002
9.560000e+002
9.590000e+002
9.560000e+002
9.570000e+002
9.560000e+002
9.540000e+002
9.560000e+002
9.580000e+002
9.580000e+002
9.590000e+002
9.570000e+002
9.560000e+002
9.570000e+002
9.610000e+002
9.610000e+002
9.620000e+002
9.600000e+002
9.580000e+002
9.600000e+002
9.630000e+002
9.620000e+002
9.630000e+002
9.650000e+002
9.600000e+002
9.630000e+002
9.660000e+002
9.670000e+002
9.670000e+002
9.670000e+002
9.670000e+002
9.710000e+002
9.740000e+002
9.740000e+002
9.740000e+002
9.740000e+002
9.740000e+002
9.740000e+002
9.780000e+002
9.810000e+002
9.790000e+002
9.790000e+002
9.780000e+002
9.780000e+002
9.790000e+002
9.810000e+002
9.810000e+002
9.780000e+002
9.740000e+002
9.760000e+002
9.780000e+002
9.780000e+002
9.760000e+002
9.740000e+002
9.730000e+002
9.800000e+002
9.840000e+002
9.840000e+002
9.790000e+002
9.710000e+002
9.660000e+002
9.660000e+002
9.640000e+002
9.620000e+002
9.590000e+002
9.570000e+002
9.560000e+002
9.540000e+002
9.560000e+002
9.560000e+002
9.550000e+002
9.580000e+002
9.540000e+002
9.550000e+002
9.550000e+002
9.560000e+002
9.540000e+002
9.530000e+002
9.530000e+002
9.530000e+002
9.550000e+002
9.560000e+002
9.560000e+002
9.530000e+002
9.520000e+002
9.520000e+002
9.530000e+002
9.550000e+002
9.550000e+002
9.520000e+002
9.500000e+002
9.490000e+002
9.500000e+002
9.480000e+002
9.400000e+002
9.310000e+002
9.270000e+002
9.210000e+002
9.150000e+002
9.090000e+002
9.150000e+002
9.340000e+002
9.590000e+002
9.850000e+002
1.015000e+003
1.057000e+003
1.109000e+003
1.155000e+003
1.186000e+003
1.199000e+003
1.187000e+003
1.142000e+003
1.068000e+003
9.940000e+002
9.480000e+002
9.300000e+002
9.310000e+002
9.390000e+002
9.470000e+002
9.490000e+002
9.450000e+002
9.470000e+002
9.490000e+002
9.530000e+002
9.500000e+002
9.520000e+002
9.510000e+002
9.500000e+002
9.500000e+002
9.520000e+002
9.510000e+002
9.490000e+002
9.480000e+002
9.500000e+002
9.500000e+002
9.500000e+002
9.480000e+002
9.470000e+002
9.450000e+002
9.460000e+002
9.480000e+002
9.490000e+002
9.490000e+002
9.450000e+002
9.440000e+002
9.450000e+002
9.500000e+002
9.500000e+002
9.500000e+002
9.510000e+002
9.460000e+002
9.470000e+002
9.490000e+002
9.520000e+002
9.480000e+002
9.460000e+002
9.460000e+002
9.470000e+002
9.490000e+002
9.490000e+002
9.490000e+002
9.480000e+002
9.460000e+002
9.480000e+002
9.510000e+002
9.480000e+002
9.480000e+002
9.470000e+002
9.460000e+002
9.460000e+002
9.480000e+002
9.480000e+002
9.470000e+002
9.450000e+002
9.440000e+002
9.470000e+002
9.480000e+002
9.520000e+002
9.500000e+002
9.490000e+002
9.500000e+002
9.470000e+002
9.500000e+002
9.510000e+002
9.520000e+002
9.510000e+002
9.490000e+002
9.480000e+002
9.510000e+002
9.500000e+002
9.520000e+002
9.500000e+002
9.450000e+002
9.470000e+002
9.470000e+002
9.460000e+002
9.460000e+002
9.460000e+002
9.420000e+002
9.460000e+002
9.480000e+002
9.460000e+002
9.480000e+002
9.450000e+002
9.430000e+002
9.430000e+002
9.450000e+002
9.460000e+002
9.460000e+002
9.420000e+002
9.410000e+002
9.460000e+002
9.480000e+002
9.460000e+002
9.470000e+002
9.460000e+002
9.460000e+002
9.480000e+002
9.520000e+002
9.530000e+002
9.550000e+002
9.560000e+002
9.550000e+002
9.580000e+002
9.600000e+002
9.610000e+002
9.640000e+002
9.630000e+002
9.600000e+002
9.640000e+002
9.690000e+002
9.690000e+002
9.690000e+002
9.690000e+002
9.680000e+002
9.670000e+002
9.690000e+002
9.690000e+002
9.680000e+002
9.650000e+002
9.630000e+002
9.630000e+002
9.640000e+002
9.660000e+002
9.670000e+002
9.650000e+002
9.620000e+002
9.640000e+002
9.640000e+002
9.650000e+002
9.640000e+002
9.630000e+002
9.620000e+002
9.610000e+002
9.630000e+002
9.620000e+002
9.620000e+002
9.610000e+002
9.600000e+002
9.630000e+002
9.660000e+002
9.670000e+002
9.650000e+002
9.640000e+002
9.610000e+002
9.620000e+002
9.610000e+002
9.600000e+002
9.600000e+002
9.580000e+002
9.560000e+002
9.600000e+002
9.620000e+002
9.600000e+002
9.600000e+002
9.580000e+002
9.550000e+002
9.560000e+002
9.580000e+002
9.580000e+002
9.600000e+002
9.580000e+002
9.590000e+002
9.590000e+002
9.600000e+002
9.610000e+002
9.600000e+002
9.580000e+002
9.550000e+002
9.600000e+002
9.610000e+002
9.610000e+002
9.600000e+002
9.590000e+002
9.570000e+002
9.560000e+002
9.580000e+002
9.590000e+002
9.610000e+002
9.570000e+002
9.550000e+002
9.560000e+002
9.590000e+002
9.600000e+002
9.580000e+002
9.550000e+002
9.560000e+002
9.580000e+002
9.560000e+002
9.590000e+002
9.610000e+002
9.620000e+002
9.590000e+002
9.610000e+002
9.580000e+002
9.610000e+002
9.600000e+002
9.590000e+002
9.580000e+002
9.580000e+002
9.610000e+002
9.620000e+002
9.630000e+002
9.620000e+002
9.620000e+002
9.640000e+002
9.670000e+002
9.690000e+002
9.700000e+002
9.700000e+002
9.680000e+002
9.710000e+002
9.730000e+002
9.740000e+002
9.750000e+002
9.740000e+002
9.750000e+002
9.790000e+002
9.810000e+002
9.800000e+002
9.800000e+002
9.780000e+002
9.770000e+002
9.760000e+002
9.760000e+002
9.780000e+002
9.790000e+002
9.760000e+002
9.700000e+002
9.740000e+002
9.730000e+002
9.770000e+002
9.790000e+002
9.810000e+002
9.760000e+002
9.720000e+002
9.690000e+002
9.670000e+002
9.610000e+002
9.600000e+002
9.550000e+002
9.540000e+002
9.540000e+002
9.520000e+002
9.510000e+002
9.530000e+002
9.520000e+002
9.520000e+002
9.520000e+002
9.540000e+002
9.550000e+002
9.530000e+002
9.490000e+002
9.510000e+002
9.540000e+002
9.550000e+002
9.560000e+002
9.570000e+002
9.530000e+002
9.510000e+002
9.540000e+002
9.550000e+002
9.550000e+002
9.530000e+002
9.500000e+002
9.500000e+002
9.510000e+002
9.520000e+002
9.470000e+002
9.410000e+002
9.330000e+002
9.310000e+002
9.320000e+002
9.290000e+002
9.250000e+002
9.130000e+002
9.070000e+002
9.140000e+002
9.320000e+002
9.550000e+002
9.830000e+002
1.016000e+003
1.062000e+003
1.115000e+003
1.160000e+003
1.192000e+003
1.200000e+003
1.169000e+003
1.104000e+003
1.024000e+003
9.680000e+002
9.370000e+002
9.220000e+002
9.270000e+002
9.320000e+002
9.380000e+002
9.430000e+002
9.420000e+002
9.420000e+002
9.410000e+002
9.430000e+002
9.410000e+002
9.450000e+002
9.460000e+002
9.450000e+002
9.430000e+002
9.420000e+002
9.420000e+002
9.450000e+002
9.460000e+002
9.440000e+002
9.440000e+002
9.450000e+002
9.440000e+002
9.470000e+002
9.470000e+002
9.450000e+002
9.420000e+002
9.400000e+002
9.420000e+002
9.440000e+002
9.460000e+002
9.420000e+002
9.410000e+002
9.390000e+002
9.390000e+002
9.430000e+002
9.440000e+002
9.390000e+002
9.410000e+002
9.410000e+002
9.420000e+002
9.430000e+002
9.440000e+002
9.420000e+002
9.430000e+002
9.410000e+002
9.420000e+002
9.440000e+002
9.450000e+002
9.440000e+002
9.430000e+002
9.430000e+002
9.410000e+002
9.430000e+002
9.440000e+002
9.430000e+002
9.420000e+002
9.400000e+002
9.410000e+002
9.440000e+002
9.450000e+002
9.440000e+002
9.410000e+002
9.400000e+002
9.420000e+002
9.440000e+002
9.450000e+002
9.440000e+002
9.410000e+002
9.420000e+002
9.410000e+002
9.410000e+002
9.430000e+002
9.420000e+002
9.400000e+002
9.360000e+002
9.380000e+002
9.380000e+002
9.390000e+002
9.370000e+002
9.370000e+002
9.360000e+002
9.340000e+002
9.340000e+002
9.340000e+002
9.310000e+002
9.300000e+002
9.270000e+002
9.310000e+002
9.330000e+002
9.340000e+002
9.340000e+002
9.300000e+002
9.270000e+002
9.320000e+002
9.350000e+002
9.370000e+002
9.390000e+002
9.380000e+002
9.380000e+002
9.410000e+002
9.470000e+002
9.510000e+002
9.490000e+002
9.520000e+002
9.520000e+002
9.540000e+002
9.570000e+002
9.570000e+002
9.590000e+002
9.570000e+002
9.570000e+002
9.570000e+002
9.620000e+002
9.620000e+002
9.610000e+002
9.610000e+002
9.600000e+002
9.610000e+002
9.650000e+002
9.650000e+002
9.640000e+002
9.630000e+002
9.580000e+002
9.590000e+002
9.610000e+002
9.590000e+002
9.600000e+002
9.580000e+002
9.570000e+002
9.570000e+002
9.580000e+002
9.630000e+002
9.590000e+002
9.590000e+002
9.590000e+002
9.590000e+002
9.620000e+002
9.630000e+002
9.610000e+002
9.590000e+002
9.580000e+002
9.590000e+002
9.590000e+002
9.560000e+002
9.560000e+002
9.560000e+002
9.550000e+002
9.560000e+002
9.590000e+002
9.580000e+002
9.600000e+002
9.590000e+002
9.560000e+002
9.560000e+002
9.570000e+002
9.560000e+002
9.540000e+002
9.530000e+002
9.520000e+002
9.540000e+002
9.550000e+002
9.550000e+002
9.520000e+002
9.530000e+002
9.500000e+002
9.510000e+002
9.540000e+002
9.520000e+002
9.540000e+002
9.520000e+002
9.500000e+002
9.520000e+002
9.530000e+002
9.550000e+002
9.550000e+002
9.540000e+002
9.540000e+002
9.550000e+002
9.570000e+002
9.580000e+002
9.560000e+002
9.550000e+002
9.540000e+002
9.550000e+002
9.550000e+002
9.560000e+002
9.560000e+002
9.550000e+002
9.520000e+002
9.540000e+002
9.550000e+002
9.570000e+002
9.550000e+002
9.550000e+002
9.530000e+002
9.550000e+002
9.570000e+002
9.590000e+002
9.600000e+002
9.630000e+002
9.630000e+002
9.640000e+002
9.670000e+002
9.680000e+002
9.710000e+002
9.690000e+002
9.700000e+002
9.750000e+002
9.760000e+002
9.780000e+002
9.770000e+002
9.780000e+002
9.750000e+002
9.750000e+002
9.760000e+002
9.740000e+002
9.730000e+002
9.730000e+002
9.700000e+002
9.710000e+002
9.710000e+002
9.710000e+002
9.730000e+002
9.740000e+002
9.770000e+002
9.780000e+002
9.740000e+002
9.720000e+002
9.680000e+002
9.630000e+002
9.560000e+002
9.580000e+002
9.570000e+002
9.580000e+002
9.550000e+002
9.540000e+002
9.520000e+002
9.520000e+002
9.520000e+002
9.510000e+002
9.510000e+002
9.530000e+002
9.510000e+002
9.520000e+002
9.520000e+002
9.520000e+002
9.530000e+002
9.490000e+002
9.490000e+002
9.510000e+002
9.520000e+002
9.500000e+002
9.520000e+002
9.480000e+002
9.460000e+002
9.470000e+002
9.470000e+002
9.510000e+002
9.490000e+002
9.490000e+002
9.440000e+002
9.450000e+002
9.380000e+002
9.320000e+002
9.280000e+002
9.220000e+002
9.100000e+002
9.070000e+002
9.210000e+002
9.470000e+002
9.760000e+002
1.007000e+003
1.049000e+003
1.105000e+003
1.159000e+003
1.197000e+003
1.211000e+003
1.192000e+003
1.135000e+003
1.052000e+003
9.840000e+002
9.430000e+002
9.270000e+002
9.270000e+002
9.340000e+002
9.470000e+002
9.470000e+002
9.470000e+002
9.460000e+002
9.470000e+002
9.450000e+002
9.460000e+002
9.470000e+002
9.470000e+002
9.460000e+002
9.450000e+002
9.460000e+002
9.460000e+002
9.450000e+002
9.480000e+002
9.470000e+002
9.460000e+002
9.430000e+002
9.440000e+002
9.450000e+002
9.460000e+002
9.460000e+002
9.460000e+002
9.430000e+002
9.490000e+002
9.460000e+002
9.480000e+002
9.460000e+002
9.470000e+002
9.460000e+002
9.470000e+002
9.500000e+002
9.510000e+002
9.510000e+002
9.480000e+002
9.460000e+002
9.460000e+002
9.470000e+002
9.490000e+002
9.480000e+002
9.460000e+002
9.460000e+002
9.450000e+002
9.490000e+002
9.470000e+002
9.470000e+002
9.440000e+002
9.460000e+002
9.470000e+002
9.470000e+002
9.490000e+002
9.480000e+002
9.450000e+002
9.430000e+002
9.470000e+002
9.480000e+002
9.490000e+002
9.480000e+002
9.480000e+002
9.460000e+002
9.460000e+002
9.480000e+002
9.530000e+002
9.530000e+002
9.500000e+002
9.470000e+002
9.490000e+002
9.470000e+002
9.490000e+002
9.460000e+002
9.460000e+002
9.440000e+002
9.440000e+002
9.470000e+002
9.460000e+002
9.460000e+002
9.430000e+002
9.410000e+002
9.430000e+002
9.430000e+002
9.430000e+002
9.420000e+002
9.390000e+002
9.380000e+002
9.400000e+002
9.430000e+002
9.420000e+002
9.420000e+002
9.420000e+002
9.420000e+002
9.440000e+002
9.470000e+002
9.500000e+002
9.490000e+002
9.520000e+002
9.510000e+002
9.530000e+002
9.570000e+002
9.610000e+002
9.610000e+002
9.620000e+002
9.610000e+002
9.650000e+002
9.660000e+002
9.700000e+002
9.670000e+002
9.660000e+002
9.660000e+002
9.680000e+002
9.690000e+002
9.730000e+002
9.700000e+002
9.690000e+002
9.690000e+002
9.680000e+002
9.730000e+002
9.750000e+002
9.720000e+002
9.730000e+002
9.710000e+002
9.720000e+002
9.720000e+002
9.760000e+002
9.740000e+002
9.720000e+002
9.690000e+002
9.710000e+002
9.720000e+002
9.720000e+002
9.670000e+002
9.670000e+002
9.680000e+002
9.670000e+002
9.670000e+002
9.710000e+002
9.680000e+002
9.690000e+002
9.650000e+002
9.650000e+002
9.680000e+002
9.690000e+002
9.680000e+002
9.670000e+002
9.620000e+002
9.630000e+002
9.680000e+002
9.660000e+002
9.670000e+002
9.660000e+002
9.640000e+002
9.620000e+002
9.650000e+002
9.650000e+002
9.660000e+002
9.610000e+002
9.620000e+002
9.620000e+002
9.610000e+002
9.630000e+002
9.620000e+002
9.600000e+002
9.590000e+002
9.620000e+002
9.630000e+002
9.620000e+002
9.630000e+002
9.610000e+002
9.610000e+002
9.630000e+002
9.630000e+002
9.640000e+002
9.640000e+002
9.610000e+002
9.600000e+002
9.630000e+002
9.650000e+002
9.640000e+002
9.630000e+002
9.640000e+002
9.600000e+002
9.620000e+002
9.630000e+002
9.650000e+002
9.640000e+002
9.620000e+002
9.590000e+002
9.610000e+002
9.610000e+002
9.640000e+002
9.640000e+002
9.620000e+002
9.600000e+002
9.610000e+002
9.630000e+002
9.640000e+002
9.640000e+002
9.640000e+002
9.640000e+002
9.670000e+002
9.720000e+002
9.750000e+002
9.760000e+002
9.750000e+002
9.740000e+002
9.760000e+002
9.750000e+002
9.780000e+002
9.800000e+002
9.780000e+002
9.770000e+002
9.780000e+002
9.830000e+002
9.840000e+002
9.850000e+002
9.820000e+002
9.810000e+002
9.830000e+002
9.830000e+002
9.830000e+002
9.820000e+002
9.790000e+002
9.780000e+002
9.790000e+002
9.800000e+002
9.800000e+002
9.810000e+002
9.840000e+002
9.860000e+002
9.860000e+002
9.830000e+002
9.790000e+002
9.740000e+002
9.700000e+002
9.640000e+002
9.630000e+002
9.600000e+002
9.600000e+002
9.590000e+002
9.570000e+002
9.560000e+002
9.570000e+002
9.550000e+002
9.580000e+002
9.580000e+002
9.550000e+002
9.550000e+002
9.540000e+002
9.570000e+002
9.570000e+002
9.570000e+002
9.560000e+002
9.550000e+002
9.560000e+002
9.600000e+002
9.590000e+002
9.590000e+002
9.570000e+002
9.550000e+002
9.540000e+002
9.450000e+002
9.380000e+002
9.320000e+002
9.230000e+002
9.150000e+002
9.090000e+002
9.120000e+002
9.330000e+002
9.580000e+002
9.770000e+002
9.980000e+002
1.024000e+003
1.056000e+003
1.094000e+003
1.133000e+003
1.164000e+003
1.187000e+003
1.210000e+003
1.231000e+003
1.234000e+003
1.208000e+003
1.138000e+003
1.047000e+003
9.750000e+002
9.400000e+002
9.390000e+002
9.460000e+002
9.530000e+002
9.520000e+002
9.510000e+002
9.530000e+002
9.540000e+002
9.520000e+002
9.510000e+002
9.460000e+002
9.470000e+002
9.490000e+002
9.500000e+002
9.500000e+002
9.480000e+002
9.450000e+002
9.470000e+002
9.490000e+002
9.510000e+002
9.500000e+002
9.470000e+002
9.440000e+002
9.470000e+002
9.470000e+002
9.500000e+002
9.490000e+002
9.470000e+002
9.450000e+002
9.460000e+002
9.500000e+002
9.520000e+002
9.520000e+002
9.510000e+002
9.500000e+002
9.500000e+002
9.510000e+002
9.530000e+002
9.520000e+002
9.500000e+002
9.480000e+002
9.480000e+002
9.510000e+002
9.500000e+002
9.510000e+002
9.480000e+002
9.460000e+002
9.480000e+002
9.480000e+002
9.510000e+002
9.510000e+002
9.490000e+002
9.470000e+002
9.470000e+002
9.490000e+002
9.520000e+002
9.530000e+002
9.500000e+002
9.490000e+002
9.500000e+002
9.500000e+002
9.530000e+002
9.510000e+002
9.520000e+002
9.470000e+002
9.470000e+002
9.480000e+002
9.520000e+002
9.510000e+002
9.490000e+002
9.480000e+002
9.500000e+002
9.500000e+002
9.500000e+002
9.520000e+002
9.470000e+002
9.450000e+002
9.480000e+002
9.490000e+002
9.510000e+002
9.490000e+002
9.470000e+002
9.460000e+002
9.490000e+002
9.500000e+002
9.500000e+002
9.500000e+002
9.500000e+002
9.470000e+002
9.480000e+002
9.470000e+002
9.500000e+002
9.500000e+002
9.500000e+002
9.480000e+002
9.500000e+002
9.550000e+002
9.560000e+002
9.590000e+002
9.570000e+002
9.590000e+002
9.630000e+002
9.650000e+002
9.650000e+002
9.640000e+002
9.640000e+002
9.630000e+002
9.650000e+002
9.680000e+002
9.670000e+002
9.690000e+002
9.710000e+002
9.680000e+002
9.690000e+002
9.730000e+002
9.710000e+002
9.720000e+002
9.710000e+002
9.670000e+002
9.670000e+002
9.690000e+002
9.720000e+002
9.710000e+002
9.670000e+002
9.670000e+002
9.660000e+002
9.690000e+002
9.690000e+002
9.710000e+002
9.690000e+002
9.630000e+002
9.660000e+002
9.670000e+002
9.670000e+002
9.690000e+002
9.650000e+002
9.640000e+002
9.680000e+002
9.680000e+002
9.700000e+002
9.680000e+002
9.650000e+002
9.640000e+002
9.620000e+002
9.610000e+002
9.630000e+002
9.630000e+002
9.570000e+002
9.570000e+002
9.600000e+002
9.600000e+002
9.620000e+002
9.600000e+002
9.580000e+002
9.580000e+002
9.580000e+002
9.580000e+002
9.620000e+002
9.610000e+002
9.600000e+002
9.570000e+002
9.580000e+002
9.610000e+002
9.620000e+002
9.610000e+002
9.580000e+002
9.560000e+002
9.570000e+002
9.560000e+002
9.630000e+002
9.600000e+002
9.580000e+002
9.560000e+002
9.570000e+002
9.600000e+002
9.600000e+002
9.580000e+002
9.580000e+002
9.570000e+002
9.590000e+002
9.610000e+002
9.600000e+002
9.610000e+002
9.600000e+002
9.620000e+002
9.620000e+002
9.620000e+002
9.630000e+002
9.640000e+002
9.620000e+002
9.620000e+002
9.640000e+002
9.670000e+002
9.660000e+002
9.690000e+002
9.690000e+002
9.690000e+002
9.700000e+002
9.730000e+002
9.760000e+002
9.750000e+002
9.760000e+002
9.750000e+002
9.750000e+002
9.800000e+002
9.830000e+002
9.860000e+002
9.850000e+002
9.860000e+002
9.840000e+002
9.850000e+002
9.840000e+002
9.820000e+002
9.810000e+002
9.800000e+002
9.820000e+002
9.820000e+002
9.840000e+002
9.820000e+002
9.800000e+002
9.810000e+002
9.800000e+002
9.770000e+002
9.790000e+002
9.790000e+002
9.800000e+002
9.840000e+002
9.830000e+002
9.780000e+002
9.740000e+002
9.720000e+002
9.670000e+002
9.640000e+002
9.610000e+002
9.580000e+002
9.590000e+002
9.570000e+002
9.560000e+002
9.550000e+002
9.580000e+002
9.600000e+002
9.600000e+002
9.590000e+002
9.570000e+002
9.570000e+002
9.570000e+002
9.580000e+002
9.580000e+002
9.570000e+002
9.540000e+002
9.530000e+002
9.540000e+002
9.550000e+002
9.560000e+002
9.540000e+002
9.520000e+002
9.460000e+002
9.440000e+002
9.370000e+002
9.310000e+002
9.280000e+002
9.210000e+002
9.100000e+002
9.080000e+002
9.200000e+002
9.440000e+002
9.740000e+002
1.005000e+003
1.044000e+003
1.103000e+003
1.156000e+003
1.190000e+003
1.200000e+003
1.176000e+003
1.116000e+003
1.038000e+003
9.760000e+002
9.390000e+002
9.270000e+002
9.280000e+002
9.380000e+002
9.440000e+002
9.450000e+002
9.440000e+002
9.440000e+002
9.450000e+002
9.460000e+002
9.490000e+002
9.510000e+002
9.500000e+002
9.470000e+002
9.450000e+002
9.430000e+002
9.460000e+002
9.460000e+002
9.470000e+002
9.480000e+002
9.450000e+002
9.440000e+002
9.480000e+002
9.480000e+002
9.490000e+002
9.470000e+002
9.450000e+002
9.430000e+002
9.440000e+002
9.450000e+002
9.450000e+002
9.480000e+002
9.450000e+002
9.460000e+002
9.450000e+002
9.440000e+002
9.460000e+002
9.470000e+002
9.460000e+002
9.440000e+002
9.460000e+002
9.480000e+002
9.480000e+002
9.470000e+002
9.480000e+002
9.470000e+002
9.500000e+002
9.490000e+002
9.500000e+002
9.500000e+002
9.490000e+002
9.470000e+002
9.470000e+002
9.490000e+002
9.470000e+002
9.480000e+002
9.440000e+002
9.430000e+002
9.440000e+002
9.470000e+002
9.480000e+002
9.490000e+002
9.450000e+002
9.430000e+002
9.430000e+002
9.450000e+002
9.460000e+002
9.480000e+002
9.470000e+002
9.450000e+002
9.490000e+002
9.490000e+002
9.480000e+002
9.470000e+002
9.490000e+002
9.470000e+002
9.470000e+002
9.490000e+002
9.480000e+002
9.440000e+002
9.430000e+002
9.410000e+002
9.420000e+002
9.410000e+002
9.440000e+002
9.420000e+002
9.420000e+002
9.410000e+002
9.410000e+002
9.410000e+002
9.410000e+002
9.410000e+002
9.390000e+002
9.350000e+002
9.380000e+002
9.400000e+002
9.410000e+002
9.440000e+002
9.420000e+002
9.430000e+002
9.470000e+002
9.490000e+002
9.540000e+002
9.540000e+002
9.540000e+002
9.530000e+002
9.570000e+002
9.580000e+002
9.630000e+002
9.620000e+002
9.590000e+002
9.590000e+002
9.610000e+002
9.610000e+002
9.620000e+002
9.620000e+002
9.630000e+002
9.610000e+002
9.600000e+002
9.620000e+002
9.630000e+002
9.630000e+002
9.630000e+002
9.620000e+002
9.650000e+002
9.650000e+002
9.660000e+002
9.670000e+002
9.670000e+002
9.630000e+002
9.630000e+002
9.650000e+002
9.660000e+002
9.650000e+002
9.650000e+002
9.630000e+002
9.630000e+002
9.640000e+002
9.640000e+002
9.640000e+002
9.600000e+002
9.600000e+002
9.590000e+002
9.600000e+002
9.600000e+002
9.630000e+002
9.590000e+002
9.600000e+002
9.610000e+002
9.600000e+002
9.620000e+002
9.610000e+002
9.620000e+002
9.610000e+002
9.610000e+002
9.610000e+002
9.630000e+002
9.620000e+002
9.610000e+002
9.590000e+002
9.580000e+002
9.580000e+002
9.590000e+002
9.590000e+002
9.580000e+002
9.540000e+002
9.540000e+002
9.580000e+002
9.590000e+002
9.580000e+002
9.540000e+002
9.520000e+002
9.540000e+002
9.560000e+002
9.580000e+002
9.580000e+002
9.580000e+002
9.540000e+002
9.540000e+002
9.560000e+002
9.590000e+002
9.600000e+002
9.580000e+002
9.570000e+002
9.540000e+002
9.560000e+002
9.550000e+002
9.560000e+002
9.580000e+002
9.570000e+002
9.560000e+002
9.600000e+002
9.590000e+002
9.580000e+002
9.540000e+002
9.540000e+002
9.570000e+002
9.600000e+002
9.620000e+002
9.630000e+002
9.650000e+002
9.650000e+002
9.690000e+002
9.700000e+002
9.730000e+002
9.710000e+002
9.740000e+002
9.740000e+002
9.740000e+002
9.790000e+002
9.800000e+002
9.800000e+002
9.780000e+002
9.740000e+002
9.740000e+002
9.740000e+002
9.770000e+002
9.780000e+002
9.750000e+002
9.760000e+002
9.770000e+002
9.770000e+002
9.780000e+002
9.730000e+002
9.720000e+002
9.690000e+002
9.710000e+002
9.730000e+002
9.780000e+002
9.790000e+002
9.760000e+002
9.700000e+002
9.670000e+002
9.650000e+002
9.630000e+002
9.600000e+002
9.530000e+002
9.510000e+002
9.520000e+002
9.510000e+002
9.530000e+002
9.530000e+002
9.520000e+002
9.510000e+002
9.510000e+002
9.530000e+002
9.550000e+002
9.530000e+002
9.500000e+002
9.470000e+002
9.500000e+002
9.540000e+002
9.540000e+002
9.550000e+002
9.520000e+002
9.500000e+002
9.500000e+002
9.520000e+002
9.550000e+002
9.520000e+002
9.510000e+002
9.470000e+002
9.460000e+002
9.430000e+002
9.380000e+002
9.340000e+002
9.300000e+002
9.210000e+002
9.140000e+002
9.110000e+002
9.230000e+002
9.400000e+002
9.650000e+002
9.980000e+002
1.040000e+003
1.096000e+003
1.148000e+003
1.191000e+003
1.208000e+003
1.190000e+003
1.133000e+003
1.056000e+003
9.880000e+002
9.450000e+002
9.260000e+002
9.210000e+002
9.300000e+002
9.390000e+002
9.420000e+002
9.420000e+002
9.410000e+002
9.420000e+002
9.430000e+002
9.450000e+002
9.450000e+002
9.450000e+002
9.430000e+002
9.420000e+002
9.440000e+002
9.430000e+002
9.450000e+002
9.440000e+002
9.420000e+002
9.400000e+002
9.410000e+002
9.410000e+002
9.430000e+002
9.420000e+002
9.380000e+002
9.350000e+002
9.350000e+002
9.390000e+002
9.410000e+002
9.400000e+002
9.400000e+002
9.390000e+002
9.400000e+002
9.390000e+002
9.420000e+002
9.410000e+002
9.370000e+002
9.360000e+002
9.370000e+002
9.410000e+002
9.410000e+002
9.420000e+002
9.420000e+002
9.400000e+002
9.380000e+002
9.370000e+002
9.390000e+002
9.400000e+002
9.400000e+002
9.390000e+002
9.390000e+002
9.390000e+002
9.400000e+002
9.390000e+002
9.390000e+002
9.390000e+002
9.400000e+002
9.410000e+002
9.410000e+002
9.410000e+002
9.400000e+002
9.380000e+002
9.390000e+002
9.400000e+002
9.410000e+002
9.400000e+002
9.400000e+002
9.380000e+002
9.400000e+002
9.400000e+002
9.420000e+002
9.430000e+002
9.390000e+002
9.370000e+002
9.360000e+002
9.400000e+002
9.410000e+002
9.380000e+002
9.360000e+002
9.340000e+002
9.340000e+002
9.350000e+002
9.350000e+002
9.350000e+002
9.310000e+002
9.290000e+002
9.260000e+002
9.280000e+002
9.290000e+002
9.280000e+002
9.270000e+002
9.260000e+002
9.270000e+002
9.290000e+002
9.330000e+002
9.310000e+002
9.320000e+002
9.300000e+002
9.330000e+002
9.340000e+002
9.370000e+002
9.380000e+002
9.380000e+002
9.400000e+002
9.410000e+002
9.460000e+002
9.470000e+002
9.490000e+002
9.490000e+002
9.490000e+002
9.520000e+002
9.550000e+002
9.570000e+002
9.580000e+002
9.550000e+002
9.560000e+002
9.570000e+002
9.580000e+002
9.590000e+002
9.600000e+002
9.580000e+002
9.570000e+002
9.590000e+002
9.600000e+002
9.620000e+002
9.630000e+002
9.590000e+002
9.580000e+002
9.590000e+002
9.600000e+002
9.630000e+002
9.600000e+002
9.600000e+002
9.560000e+002
9.590000e+002
9.590000e+002
9.580000e+002
9.580000e+002
9.550000e+002
9.530000e+002
9.540000e+002
9.580000e+002
9.590000e+002
9.570000e+002
9.570000e+002
9.520000e+002
9.540000e+002
9.550000e+002
9.530000e+002
9.520000e+002
9.540000e+002
9.500000e+002
9.540000e+002
9.530000e+002
9.540000e+002
9.540000e+002
9.540000e+002
9.510000e+002
9.530000e+002
9.520000e+002
9.540000e+002
9.520000e+002
9.510000e+002
9.490000e+002
9.510000e+002
9.490000e+002
9.510000e+002
9.480000e+002
9.480000e+002
9.450000e+002
9.470000e+002
9.490000e+002
9.500000e+002
9.490000e+002
9.490000e+002
9.470000e+002
9.490000e+002
9.490000e+002
9.520000e+002
9.500000e+002
9.490000e+002
9.480000e+002
9.490000e+002
9.510000e+002
9.520000e+002
9.520000e+002
9.510000e+002
9.480000e+002
9.480000e+002
9.490000e+002
9.530000e+002
9.510000e+002
9.500000e+002
9.470000e+002
9.490000e+002
9.520000e+002
9.510000e+002
9.510000e+002
9.480000e+002
9.480000e+002
9.500000e+002
9.520000e+002
9.520000e+002
9.540000e+002
9.520000e+002
9.510000e+002
9.540000e+002
9.550000e+002
9.570000e+002
9.590000e+002
9.600000e+002
9.580000e+002
9.600000e+002
9.640000e+002
9.640000e+002
9.650000e+002
9.630000e+002
9.650000e+002
9.670000e+002
9.700000e+002
9.700000e+002
9.730000e+002
9.710000e+002
9.700000e+002
9.690000e+002
9.710000e+002
9.690000e+002
9.700000e+002
9.670000e+002
9.650000e+002
9.650000e+002
9.670000e+002
9.690000e+002
9.680000e+002
9.640000e+002
9.660000e+002
9.670000e+002
9.730000e+002
9.760000e+002
9.700000e+002
9.640000e+002
9.560000e+002
9.560000e+002
9.540000e+002
9.520000e+002
9.480000e+002
9.460000e+002
9.430000e+002
9.440000e+002
9.470000e+002
9.470000e+002
9.470000e+002
9.430000e+002
9.420000e+002
9.430000e+002
9.460000e+002
9.440000e+002
9.450000e+002
9.410000e+002
9.410000e+002
9.430000e+002
9.450000e+002
9.460000e+002
9.460000e+002
9.430000e+002
9.410000e+002
9.410000e+002
9.440000e+002
9.430000e+002
9.380000e+002
9.280000e+002
9.190000e+002
9.140000e+002
9.100000e+002
9.050000e+002
8.950000e+002
8.960000e+002
9.100000e+002
9.360000e+002
9.570000e+002
9.740000e+002
9.940000e+002
1.021000e+003
1.056000e+003
1.106000e+003
1.157000e+003
1.195000e+003
1.215000e+003
1.206000e+003
1.153000e+003
1.067000e+003
9.850000e+002
9.350000e+002
9.160000e+002
9.220000e+002
9.270000e+002
9.370000e+002
9.350000e+002
9.360000e+002
9.360000e+002
9.360000e+002
9.340000e+002
9.330000e+002
9.330000e+002
9.340000e+002
9.330000e+002
9.320000e+002
9.300000e+002
9.310000e+002
9.340000e+002
9.360000e+002
9.340000e+002
9.350000e+002
9.320000e+002
9.320000e+002
9.360000e+002
9.350000e+002
9.350000e+002
9.340000e+002
9.330000e+002
9.340000e+002
9.330000e+002
9.370000e+002
9.330000e+002
9.340000e+002
9.330000e+002
9.330000e+002
9.350000e+002
9.360000e+002
9.370000e+002
9.370000e+002
9.340000e+002
9.350000e+002
9.380000e+002
9.360000e+002
9.340000e+002
9.340000e+002
9.330000e+002
9.320000e+002
9.360000e+002
9.370000e+002
9.350000e+002
9.330000e+002
9.320000e+002
9.330000e+002
9.360000e+002
9.350000e+002
9.360000e+002
9.340000e+002
9.310000e+002
9.340000e+002
9.330000e+002
9.360000e+002
9.360000e+002
9.340000e+002
9.290000e+002
9.330000e+002
9.340000e+002
9.340000e+002
9.360000e+002
9.360000e+002
9.330000e+002
9.360000e+002
9.360000e+002
9.370000e+002
9.360000e+002
9.350000e+002
9.330000e+002
9.340000e+002
9.360000e+002
9.370000e+002
9.340000e+002
9.350000e+002
9.330000e+002
9.340000e+002
9.350000e+002
9.350000e+002
9.330000e+002
9.300000e+002
9.300000e+002
9.280000e+002
9.310000e+002
9.330000e+002
9.330000e+002
9.310000e+002
9.300000e+002
9.300000e+002
9.330000e+002
9.330000e+002
9.320000e+002
9.340000e+002
9.330000e+002
9.350000e+002
9.370000e+002
9.420000e+002
9.400000e+002
9.400000e+002
9.390000e+002
9.420000e+002
9.460000e+002
9.500000e+002
9.500000e+002
9.490000e+002
9.480000e+002
9.520000e+002
9.540000e+002
9.540000e+002
9.570000e+002
9.560000e+002
9.530000e+002
9.530000e+002
9.560000e+002
9.580000e+002
9.550000e+002
9.540000e+002
9.550000e+002
9.550000e+002
9.580000e+002
9.610000e+002
9.590000e+002
9.560000e+002
9.560000e+002
9.560000e+002
9.560000e+002
9.570000e+002
9.550000e+002
9.540000e+002
9.500000e+002
9.540000e+002
9.550000e+002
9.570000e+002
9.530000e+002
9.510000e+002
9.520000e+002
9.510000e+002
9.520000e+002
9.540000e+002
9.530000e+002
9.530000e+002
9.490000e+002
9.490000e+002
9.500000e+002
9.530000e+002
9.530000e+002
9.490000e+002
9.490000e+002
9.470000e+002
9.510000e+002
9.520000e+002
9.510000e+002
9.460000e+002
9.460000e+002
9.470000e+002
9.480000e+002
9.470000e+002
9.460000e+002
9.460000e+002
9.430000e+002
9.460000e+002
9.450000e+002
9.460000e+002
9.450000e+002
9.420000e+002
9.410000e+002
9.410000e+002
9.430000e+002
9.450000e+002
9.430000e+002
9.410000e+002
9.400000e+002
9.420000e+002
9.400000e+002
9.440000e+002
9.440000e+002
9.430000e+002
9.410000e+002
9.400000e+002
9.440000e+002
9.450000e+002
9.470000e+002
9.430000e+002
9.420000e+002
9.420000e+002
9.430000e+002
9.450000e+002
9.430000e+002
9.420000e+002
9.420000e+002
9.410000e+002
9.410000e+002
9.430000e+002
9.450000e+002
9.430000e+002
9.420000e+002
9.420000e+002
9.440000e+002
9.450000e+002
9.450000e+002
9.450000e+002
9.430000e+002
9.460000e+002
9.500000e+002
9.510000e+002
9.530000e+002
9.530000e+002
9.530000e+002
9.540000e+002
9.560000e+002
9.580000e+002
9.590000e+002
9.560000e+002
9.550000e+002
9.550000e+002
9.590000e+002
9.640000e+002
9.630000e+002
9.630000e+002
9.600000e+002
9.640000e+002
9.610000e+002
9.650000e+002
9.630000e+002
9.600000e+002
9.580000e+002
9.600000e+002
9.640000e+002
9.650000e+002
9.620000e+002
9.590000e+002
9.600000e+002
9.640000e+002
9.680000e+002
9.650000e+002
9.580000e+002
9.510000e+002
9.470000e+002
9.460000e+002
9.450000e+002
9.450000e+002
9.420000e+002
9.400000e+002
9.360000e+002
9.380000e+002
9.400000e+002
9.410000e+002
9.420000e+002
9.380000e+002
9.370000e+002
9.380000e+002
9.380000e+002
9.400000e+002
9.400000e+002
9.360000e+002
9.350000e+002
9.380000e+002
9.380000e+002
9.390000e+002
9.380000e+002
9.380000e+002
9.350000e+002
9.360000e+002
9.330000e+002
9.380000e+002
9.360000e+002
9.330000e+002
9.280000e+002
9.220000e+002
9.150000e+002
9.110000e+002
9.080000e+002
8.970000e+002
8.910000e+002
8.980000e+002
9.220000e+002
9.530000e+002
9.840000e+002
1.019000e+003
1.072000e+003
1.132000e+003
1.175000e+003
1.193000e+003
1.183000e+003
1.134000e+003
1.048000e+003
9.670000e+002
9.200000e+002
9.070000e+002
9.120000e+002
9.200000e+002
9.240000e+002
9.300000e+002
9.290000e+002
9.300000e+002
9.320000e+002
9.280000e+002
9.270000e+002
9.270000e+002
9.300000e+002
9.310000e+002
9.290000e+002
9.280000e+002
9.260000e+002
9.270000e+002
9.290000e+002
9.300000e+002
9.290000e+002
9.260000e+002
9.250000e+002
9.250000e+002
9.250000e+002
9.280000e+002
